# EIG2DOS: Utility for SIESTA to obtain the electronic density of states
#  E. Artacho, Apr 1999, A. Garcia, Apr 2012
#  Nick R. Papior, Feb 2017
# ------------------------------------------
# Eigenvalues calculated from a non-polarized calculation
# Eigenvalues read from siesta.EIG
# Kpoint weights read from siesta.KP
# Using smearing parameter:   0.0500
# Using 1000 points in the energy range
# Selected bands: 1 to: 2981
# Emin, Emax in file for selected band(s):    -27.0246088    218.3067140
# Nbands, Nspin, Nk   =   2981     1     1
# E_F                 =    -4.3090 eV --> (shifted to ZERO)
# Broadening          =     0.0500 eV
#
#        E            N(up)  (=)   N(down)         Ntot
     -5.000000     42.052023     42.052023     84.104045
     -4.989990     46.865072     46.865072     93.730143
     -4.979980     50.561674     50.561674    101.123349
     -4.969970     52.614892     52.614892    105.229784
     -4.959960     52.720338     52.720338    105.440675
     -4.949950     50.895261     50.895261    101.790522
     -4.939940     47.492664     47.492664     94.985328
     -4.929930     43.134090     43.134090     86.268181
     -4.919920     38.599893     38.599893     77.199786
     -4.909910     34.719811     34.719811     69.439621
     -4.899900     32.277964     32.277964     64.555928
     -4.889890     31.910017     31.910017     63.820035
     -4.879880     33.962867     33.962867     67.925734
     -4.869870     38.327470     38.327470     76.654941
     -4.859860     44.320459     44.320459     88.640919
     -4.849850     50.723815     50.723815    101.447631
     -4.839840     56.046561     56.046561    112.093121
     -4.829830     58.955718     58.955718    117.911436
     -4.819820     58.706668     58.706668    117.413337
     -4.809810     55.372969     55.372969    110.745938
     -4.799800     49.766894     49.766894     99.533787
     -4.789790     43.101508     43.101508     86.203016
     -4.779780     36.569059     36.569059     73.138119
     -4.769770     31.023183     31.023183     62.046367
     -4.759760     26.861444     26.861444     53.722888
     -4.749750     24.085782     24.085782     48.171564
     -4.739740     22.448791     22.448791     44.897582
     -4.729730     21.596826     21.596826     43.193653
     -4.719720     21.166069     21.166069     42.332139
     -4.709710     20.831033     20.831033     41.662065
     -4.699700     20.325824     20.325824     40.651647
     -4.689690     19.460505     19.460505     38.921010
     -4.679680     18.147580     18.147580     36.295160
     -4.669670     16.440731     16.440731     32.881461
     -4.659660     14.572111     14.572111     29.144222
     -4.649650     12.963168     12.963168     25.926337
     -4.639640     12.184786     12.184786     24.369573
     -4.629630     12.855515     12.855515     25.711029
     -4.619620     15.485516     15.485516     30.971033
     -4.609610     20.294342     20.294342     40.588684
     -4.599600     27.052521     27.052521     54.105043
     -4.589590     35.014705     35.014705     70.029410
     -4.579580     43.008338     43.008338     86.016675
     -4.569570     49.698328     49.698328     99.396655
     -4.559560     53.969276     53.969276    107.938553
     -4.549550     55.290434     55.290434    110.580869
     -4.539540     53.906614     53.906614    107.813228
     -4.529530     50.757821     50.757821    101.515642
     -4.519520     47.147809     47.147809     94.295618
     -4.509510     44.294600     44.294600     88.589199
     -4.499499     42.943405     42.943405     85.886810
     -4.489489     43.183156     43.183156     86.366312
     -4.479479     44.509736     44.509736     89.019472
     -4.469469     46.076704     46.076704     92.153409
     -4.459459     47.015182     47.015182     94.030364
     -4.449449     46.705453     46.705453     93.410907
     -4.439439     44.928184     44.928184     89.856368
     -4.429429     41.881024     41.881024     83.762048
     -4.419419     38.088969     38.088969     76.177938
     -4.409409     34.252945     34.252945     68.505889
     -4.399399     31.076903     31.076903     62.153806
     -4.389389     29.104492     29.104492     58.208985
     -4.379379     28.593262     28.593262     57.186524
     -4.369369     29.456074     29.456074     58.912149
     -4.359359     31.293712     31.293712     62.587423
     -4.349349     33.519608     33.519608     67.039216
     -4.339339     35.542175     35.542175     71.084349
     -4.329329     36.942237     36.942237     73.884474
     -4.319319     37.582505     37.582505     75.165010
     -4.309309     37.615930     37.615930     75.231860
     -4.299299     37.402803     37.402803     74.805605
     -4.289289     37.377201     37.377201     74.754402
     -4.279279     37.907647     37.907647     75.815293
     -4.269269     39.181328     39.181328     78.362657
     -4.259259     41.126701     41.126701     82.253403
     -4.249249     43.390042     43.390042     86.780083
     -4.239239     45.390127     45.390127     90.780254
     -4.229229     46.467012     46.467012     92.934024
     -4.219219     46.100390     46.100390     92.200779
     -4.209209     44.117984     44.117984     88.235968
     -4.199199     40.789859     40.789859     81.579719
     -4.189189     36.745022     36.745022     73.490043
     -4.179179     32.738747     32.738747     65.477495
     -4.169169     29.383816     29.383816     58.767633
     -4.159159     26.977228     26.977228     53.954456
     -4.149149     25.494748     25.494748     50.989497
     -4.139139     24.731119     24.731119     49.462239
     -4.129129     24.492670     24.492670     48.985339
     -4.119119     24.734266     24.734266     49.468532
     -4.109109     25.569943     25.569943     51.139885
     -4.099099     27.152202     27.152202     54.304405
     -4.089089     29.482885     29.482885     58.965770
     -4.079079     32.262912     32.262912     64.525823
     -4.069069     34.883713     34.883713     69.767427
     -4.059059     36.598609     36.598609     73.197218
     -4.049049     36.811703     36.811703     73.623407
     -4.039039     35.343146     35.343146     70.686293
     -4.029029     32.529593     32.529593     65.059185
     -4.019019     29.106258     29.106258     58.212516
     -4.009009     25.938577     25.938577     51.877154
     -3.998999     23.747032     23.747032     47.494065
     -3.988989     22.951438     22.951438     45.902876
     -3.978979     23.670875     23.670875     47.341750
     -3.968969     25.821223     25.821223     51.642446
     -3.958959     29.216862     29.216862     58.433725
     -3.948949     33.619076     33.619076     67.238152
     -3.938939     38.739960     38.739960     77.479921
     -3.928929     44.250223     44.250223     88.500445
     -3.918919     49.824606     49.824606     99.649212
     -3.908909     55.209268     55.209268    110.418536
     -3.898899     60.257325     60.257325    120.514650
     -3.888889     64.886146     64.886146    129.772292
     -3.878879     68.960778     68.960778    137.921556
     -3.868869     72.167811     72.167811    144.335622
     -3.858859     73.971272     73.971272    147.942545
     -3.848849     73.713474     73.713474    147.426947
     -3.838839     70.848792     70.848792    141.697585
     -3.828829     65.216783     65.216783    130.433566
     -3.818819     57.222089     57.222089    114.444178
     -3.808809     47.820787     47.820787     95.641575
     -3.798799     38.301717     38.301717     76.603433
     -3.788789     29.946470     29.946470     59.892939
     -3.778779     23.699911     23.699911     47.399823
     -3.768769     19.964417     19.964417     39.928834
     -3.758759     18.567458     18.567458     37.134916
     -3.748749     18.885158     18.885158     37.770316
     -3.738739     20.063794     20.063794     40.127589
     -3.728729     21.271311     21.271311     42.542621
     -3.718719     21.919080     21.919080     43.838159
     -3.708709     21.807427     21.807427     43.614853
     -3.698699     21.162727     21.162727     42.325453
     -3.688689     20.552565     20.552565     41.105131
     -3.678679     20.692369     20.692369     41.384738
     -3.668669     22.190473     22.190473     44.380946
     -3.658659     25.308757     25.308757     50.617514
     -3.648649     29.825831     29.825831     59.651662
     -3.638639     35.064089     35.064089     70.128178
     -3.628629     40.080874     40.080874     80.161747
     -3.618619     43.951928     43.951928     87.903855
     -3.608609     46.032559     46.032559     92.065118
     -3.598599     46.097661     46.097661     92.195322
     -3.588589     44.327916     44.327916     88.655832
     -3.578579     41.182749     41.182749     82.365498
     -3.568569     37.235214     37.235214     74.470428
     -3.558559     33.028757     33.028757     66.057515
     -3.548549     28.978773     28.978773     57.957547
     -3.538539     25.318974     25.318974     50.637949
     -3.528529     22.093551     22.093551     44.187102
     -3.518519     19.201236     19.201236     38.402472
     -3.508509     16.485736     16.485736     32.971472
     -3.498498     13.841699     13.841699     27.683398
     -3.488488     11.290066     11.290066     22.580133
     -3.478478      8.988990      8.988990     17.977979
     -3.468468      7.179508      7.179508     14.359016
     -3.458458      6.094869      6.094869     12.189738
     -3.448448      5.871199      5.871199     11.742397
     -3.438438      6.487738      6.487738     12.975475
     -3.428428      7.751652      7.751652     15.503305
     -3.418418      9.334171      9.334171     18.668342
     -3.408408     10.856869     10.856869     21.713738
     -3.398398     12.011034     12.011034     24.022068
     -3.388388     12.671959     12.671959     25.343917
     -3.378378     12.959671     12.959671     25.919343
     -3.368368     13.212998     13.212998     26.425996
     -3.358358     13.881899     13.881899     27.763798
     -3.348348     15.380858     15.380858     30.761716
     -3.338338     17.958191     17.958191     35.916383
     -3.328328     21.616449     21.616449     43.232899
     -3.318318     26.087225     26.087225     52.174451
     -3.308308     30.848081     30.848081     61.696161
     -3.298298     35.179976     35.179976     70.359953
     -3.288288     38.280775     38.280775     76.561551
     -3.278278     39.442419     39.442419     78.884838
     -3.268268     38.257261     38.257261     76.514522
     -3.258258     34.772811     34.772811     69.545623
     -3.248248     29.510195     29.510195     59.020389
     -3.238238     23.318210     23.318210     46.636421
     -3.228228     17.119652     17.119652     34.239303
     -3.218218     11.661043     11.661043     23.322086
     -3.208208      7.365378      7.365378     14.730757
     -3.198198      4.323875      4.323875      8.647751
     -3.188188      2.394180      2.394180      4.788360
     -3.178178      1.338743      1.338743      2.677486
     -3.168168      0.945337      0.945337      1.890675
     -3.158158      1.101282      1.101282      2.202565
     -3.148148      1.818587      1.818587      3.637175
     -3.138138      3.217097      3.217097      6.434194
     -3.128128      5.471377      5.471377     10.942754
     -3.118118      8.726755      8.726755     17.453511
     -3.108108     12.999204     12.999204     25.998408
     -3.098098     18.090643     18.090643     36.181285
     -3.088088     23.562870     23.562870     47.125740
     -3.078078     28.803739     28.803739     57.607479
     -3.068068     33.182030     33.182030     66.364060
     -3.058058     36.236285     36.236285     72.472571
     -3.048048     37.809225     37.809225     75.618450
     -3.038038     38.053769     38.053769     76.107539
     -3.028028     37.303020     37.303020     74.606041
     -3.018018     35.879218     35.879218     71.758436
     -3.008008     33.959465     33.959465     67.918931
     -2.997998     31.582981     31.582981     63.165963
     -2.987988     28.792597     28.792597     57.585194
     -2.977978     25.813556     25.813556     51.627113
     -2.967968     23.145843     23.145843     46.291686
     -2.957958     21.496542     21.496542     42.993083
     -2.947948     21.568305     21.568305     43.136611
     -2.937938     23.793251     23.793251     47.586502
     -2.927928     28.124964     28.124964     56.249929
     -2.917918     33.975449     33.975449     67.950899
     -2.907908     40.328950     40.328950     80.657901
     -2.897898     46.001756     46.001756     92.003512
     -2.887888     49.964303     49.964303     99.928606
     -2.877878     51.616249     51.616249    103.232497
     -2.867868     50.919497     50.919497    101.838994
     -2.857858     48.346769     48.346769     96.693537
     -2.847848     44.673600     44.673600     89.347199
     -2.837838     40.699410     40.699410     81.398820
     -2.827828     37.004548     37.004548     74.009097
     -2.817818     33.828338     33.828338     67.656675
     -2.807808     31.099028     31.099028     62.198056
     -2.797798     28.582753     28.582753     57.165505
     -2.787788     26.071032     26.071032     52.142065
     -2.777778     23.515656     23.515656     47.031312
     -2.767768     21.051821     21.051821     42.103642
     -2.757758     18.911180     18.911180     37.822360
     -2.747748     17.285424     17.285424     34.570849
     -2.737738     16.225956     16.225956     32.451913
     -2.727728     15.640288     15.640288     31.280577
     -2.717718     15.384055     15.384055     30.768110
     -2.707708     15.385444     15.385444     30.770888
     -2.697698     15.715872     15.715872     31.431745
     -2.687688     16.553419     16.553419     33.106838
     -2.677678     18.055154     18.055154     36.110309
     -2.667668     20.217096     20.217096     40.434192
     -2.657658     22.814337     22.814337     45.628674
     -2.647648     25.467184     25.467184     50.934368
     -2.637638     27.799814     27.799814     55.599628
     -2.627628     29.597836     29.597836     59.195672
     -2.617618     30.871955     30.871955     61.743910
     -2.607608     31.797483     31.797483     63.594966
     -2.597598     32.579625     32.579625     65.159250
     -2.587588     33.334218     33.334218     66.668437
     -2.577578     34.046532     34.046532     68.093064
     -2.567568     34.604210     34.604210     69.208419
     -2.557558     34.852433     34.852433     69.704866
     -2.547548     34.627002     34.627002     69.254004
     -2.537538     33.768236     33.768236     67.536471
     -2.527528     32.153418     32.153418     64.306837
     -2.517518     29.770840     29.770840     59.541680
     -2.507508     26.807286     26.807286     53.614573
     -2.497497     23.682562     23.682562     47.365123
     -2.487487     20.978290     20.978290     41.956579
     -2.477477     19.268190     19.268190     38.536380
     -2.467467     18.920627     18.920627     37.841253
     -2.457457     19.968254     19.968254     39.936509
     -2.447447     22.110327     22.110327     44.220655
     -2.437437     24.849206     24.849206     49.698412
     -2.427427     27.697945     27.697945     55.395890
     -2.417417     30.361368     30.361368     60.722736
     -2.407407     32.804720     32.804720     65.609440
     -2.397397     35.177313     35.177313     70.354626
     -2.387387     37.629811     37.629811     75.259623
     -2.377377     40.118927     40.118927     80.237854
     -2.367367     42.304578     42.304578     84.609157
     -2.357357     43.604400     43.604400     87.208799
     -2.347347     43.395954     43.395954     86.791908
     -2.337337     41.283003     41.283003     82.566006
     -2.327327     37.306013     37.306013     74.612025
     -2.317317     31.999487     31.999487     63.998974
     -2.307307     26.269634     26.269634     52.539268
     -2.297297     21.146913     21.146913     42.293827
     -2.287287     17.515352     17.515352     35.030705
     -2.277277     15.913851     15.913851     31.827701
     -2.267267     16.458449     16.458449     32.916898
     -2.257257     18.881963     18.881963     37.763926
     -2.247247     22.653506     22.653506     45.307012
     -2.237237     27.129096     27.129096     54.258193
     -2.227227     31.687119     31.687119     63.374238
     -2.217217     35.813565     35.813565     71.627130
     -2.207207     39.123378     39.123378     78.246756
     -2.197197     41.334549     41.334549     82.669098
     -2.187187     42.237187     42.237187     84.474373
     -2.177177     41.700585     41.700585     83.401170
     -2.167167     39.729034     39.729034     79.458067
     -2.157157     36.529356     36.529356     73.058711
     -2.147147     32.525620     32.525620     65.051240
     -2.137137     28.276415     28.276415     56.552829
     -2.127127     24.310533     24.310533     48.621066
     -2.117117     20.957053     20.957053     41.914107
     -2.107107     18.260194     18.260194     36.520388
     -2.097097     16.024131     16.024131     32.048262
     -2.087087     13.958092     13.958092     27.916184
     -2.077077     11.838261     11.838261     23.676523
     -2.067067      9.603878      9.603878     19.207756
     -2.057057      7.353569      7.353569     14.707138
     -2.047047      5.267092      5.267092     10.534183
     -2.037037      3.509676      3.509676      7.019352
     -2.027027      2.168786      2.168786      4.337571
     -2.017017      1.241629      1.241629      2.483259
     -2.007007      0.661505      0.661505      1.323010
     -1.996997      0.338332      0.338332      0.676664
     -1.986987      0.193496      0.193496      0.386991
     -1.976977      0.181309      0.181309      0.362618
     -1.966967      0.298872      0.298872      0.597744
     -1.956957      0.588448      0.588448      1.176896
     -1.946947      1.133219      1.133219      2.266438
     -1.936937      2.042902      2.042902      4.085804
     -1.926927      3.424911      3.424911      6.849822
     -1.916917      5.342122      5.342122     10.684244
     -1.906907      7.768094      7.768094     15.536188
     -1.896897     10.558618     10.558618     21.117236
     -1.886887     13.457456     13.457456     26.914912
     -1.876877     16.141907     16.141907     32.283814
     -1.866867     18.296478     18.296478     36.592956
     -1.856857     19.690974     19.690974     39.381948
     -1.846847     20.238547     20.238547     40.477094
     -1.836837     20.016599     20.016599     40.033198
     -1.826827     19.242381     19.242381     38.484763
     -1.816817     18.204439     18.204439     36.408878
     -1.806807     17.164898     17.164898     34.329797
     -1.796797     16.265501     16.265501     32.531003
     -1.786787     15.480117     15.480117     30.960234
     -1.776777     14.643025     14.643025     29.286050
     -1.766767     13.545095     13.545095     27.090190
     -1.756757     12.050646     12.050646     24.101292
     -1.746747     10.174860     10.174860     20.349719
     -1.736737      8.086385      8.086385     16.172771
     -1.726727      6.045128      6.045128     12.090255
     -1.716717      4.319596      4.319596      8.639191
     -1.706707      3.130402      3.130402      6.260804
     -1.696697      2.639424      2.639424      5.278849
     -1.686687      2.968949      2.968949      5.937898
     -1.676677      4.214236      4.214236      8.428473
     -1.666667      6.417753      6.417753     12.835507
     -1.656657      9.501239      9.501239     19.002477
     -1.646647     13.188623     13.188623     26.377247
     -1.636637     16.977401     16.977401     33.954802
     -1.626627     20.208304     20.208304     40.416607
