# EIG2DOS: Utility for SIESTA to obtain the electronic density of states
#  E. Artacho, Apr 1999, A. Garcia, Apr 2012
#  Nick R. Papior, Feb 2017
# ------------------------------------------
# Eigenvalues calculated from a non-polarized calculation
# Eigenvalues read from siesta.EIG
# Kpoint weights read from siesta.KP
# Using smearing parameter:   0.0500
# Using 1000 points in the energy range
# Selected bands: 1 to: 2981
# Emin, Emax in file for selected band(s):    -27.2502172    218.3985910
# Nbands, Nspin, Nk   =   2981     1     1
# E_F                 =    -4.1978 eV --> (shifted to ZERO)
# Broadening          =     0.0500 eV
#
#        E            N(up)  (=)   N(down)         Ntot
     -5.000000     32.538781     32.538781     65.077563
     -4.989990     37.679046     37.679046     75.358091
     -4.979980     42.385943     42.385943     84.771887
     -4.969970     45.821536     45.821536     91.643071
     -4.959960     47.329859     47.329859     94.659718
     -4.949950     46.657724     46.657724     93.315448
     -4.939940     44.042347     44.042347     88.084693
     -4.929930     40.148361     40.148361     80.296721
     -4.919920     35.903862     35.903862     71.807725
     -4.909910     32.306879     32.306879     64.613757
     -4.899900     30.246953     30.246953     60.493905
     -4.889890     30.346962     30.346962     60.693924
     -4.879880     32.819774     32.819774     65.639548
     -4.869870     37.362887     37.362887     74.725773
     -4.859860     43.149836     43.149836     86.299672
     -4.849850     48.974459     48.974459     97.948918
     -4.839840     53.546038     53.546038    107.092075
     -4.829830     55.849881     55.849881    111.699762
     -4.819820     55.435420     55.435420    110.870840
     -4.809810     52.512853     52.512853    105.025707
     -4.799800     47.824081     47.824081     95.648162
     -4.789790     42.355916     42.355916     84.711832
     -4.779780     37.025626     37.025626     74.051251
     -4.769770     32.461123     32.461123     64.922246
     -4.759760     28.934438     28.934438     57.868875
     -4.749750     26.430328     26.430328     52.860657
     -4.739740     24.782239     24.782239     49.564478
     -4.729730     23.800304     23.800304     47.600609
     -4.719720     23.340896     23.340896     46.681792
     -4.709710     23.305268     23.305268     46.610536
     -4.699700     23.590851     23.590851     47.181701
     -4.689690     24.041746     24.041746     48.083492
     -4.679680     24.446052     24.446052     48.892104
     -4.669670     24.603195     24.603195     49.206390
     -4.659660     24.442708     24.442708     48.885415
     -4.649650     24.136598     24.136598     48.273195
     -4.639640     24.132505     24.132505     48.265010
     -4.629630     25.056422     25.056422     50.112845
     -4.619620     27.488549     27.488549     54.977099
     -4.609610     31.684173     31.684173     63.368346
     -4.599600     37.361396     37.361396     74.722791
     -4.589590     43.675900     43.675900     87.351800
     -4.579580     49.435144     49.435144     98.870288
     -4.569570     53.492449     53.492449    106.984897
     -4.559560     55.162072     55.162072    110.324143
     -4.549550     54.470044     54.470044    108.940089
     -4.539540     52.124884     52.124884    104.249768
     -4.529530     49.222364     49.222364     98.444729
     -4.519520     46.818538     46.818538     93.637076
     -4.509510     45.554191     45.554191     91.108381
     -4.499499     45.475275     45.475275     90.950550
     -4.489489     46.096939     46.096939     92.193878
     -4.479479     46.654642     46.654642     93.309284
     -4.469469     46.419572     46.419572     92.839144
     -4.459459     44.948937     44.948937     89.897873
     -4.449449     42.189302     42.189302     84.378603
     -4.439439     38.426036     38.426036     76.852072
     -4.429429     34.137845     34.137845     68.275690
     -4.419419     29.842295     29.842295     59.684589
     -4.409409     25.996727     25.996727     51.993455
     -4.399399     22.966560     22.966560     45.933120
     -4.389389     21.025605     21.025605     42.051211
     -4.379379     20.342517     20.342517     40.685034
     -4.369369     20.938122     20.938122     41.876245
     -4.359359     22.642998     22.642998     45.285996
     -4.349349     25.105074     25.105074     50.210148
     -4.339339     27.874901     27.874901     55.749801
     -4.329329     30.546896     30.546896     61.093793
     -4.319319     32.894238     32.894238     65.788476
     -4.309309     34.930702     34.930702     69.861404
     -4.299299     36.865512     36.865512     73.731025
     -4.289289     38.965462     38.965462     77.930924
     -4.279279     41.377877     41.377877     82.755754
     -4.269269     43.985965     43.985965     87.971931
     -4.259259     46.362953     46.362953     92.725906
     -4.249249     47.863124     47.863124     95.726248
     -4.239239     47.837348     47.837348     95.674696
     -4.229229     45.900116     45.900116     91.800233
     -4.219219     42.133933     42.133933     84.267866
     -4.209209     37.127450     37.127450     74.254899
     -4.199199     31.813395     31.813395     63.626791
     -4.189189     27.168723     27.168723     54.337446
     -4.179179     23.907472     23.907472     47.814944
     -4.169169     22.297079     22.297079     44.594157
     -4.159159     22.164027     22.164027     44.328055
     -4.149149     23.064273     23.064273     46.128547
     -4.139139     24.524386     24.524386     49.048771
     -4.129129     26.238169     26.238169     52.476337
     -4.119119     28.132147     28.132147     56.264293
     -4.109109     30.276777     30.276777     60.553555
     -4.099099     32.695488     32.695488     65.390976
     -4.089089     35.181195     35.181195     70.362389
     -4.079079     37.238300     37.238300     74.476599
     -4.069069     38.210746     38.210746     76.421492
     -4.059059     37.553586     37.553586     75.107172
     -4.049049     35.114309     35.114309     70.228617
     -4.039039     31.272212     31.272212     62.544423
     -4.029029     26.857039     26.857039     53.714078
     -4.019019     22.887240     22.887240     45.774480
     -4.009009     20.257551     20.257551     40.515102
     -3.998999     19.513776     19.513776     39.027552
     -3.988989     20.786375     20.786375     41.572749
     -3.978979     23.865490     23.865490     47.730979
     -3.968969     28.343419     28.343419     56.686839
     -3.958959     33.749434     33.749434     67.498869
     -3.948949     39.639996     39.639996     79.279992
     -3.938939     45.648031     45.648031     91.296062
     -3.928929     51.508632     51.508632    103.017264
     -3.918919     57.063982     57.063982    114.127965
     -3.908909     62.231832     62.231832    124.463664
     -3.898899     66.926712     66.926712    133.853425
     -3.888889     70.955279     70.955279    141.910558
     -3.878879     73.942060     73.942060    147.884121
     -3.868869     75.346694     75.346694    150.693387
     -3.858859     74.596046     74.596046    149.192093
     -3.848849     71.293732     71.293732    142.587463
     -3.838839     65.422067     65.422067    130.844134
     -3.828829     57.445819     57.445819    114.891639
     -3.818819     48.265649     48.265649     96.531299
     -3.808809     39.030394     39.030394     78.060787
     -3.798799     30.870755     30.870755     61.741511
     -3.788789     24.640627     24.640627     49.281254
     -3.778779     20.741789     20.741789     41.483577
     -3.768769     19.074067     19.074067     38.148135
     -3.758759     19.113184     19.113184     38.226368
     -3.748749     20.086078     20.086078     40.172156
     -3.738739     21.194416     21.194416     42.388832
     -3.728729     21.830996     21.830996     43.661992
     -3.718719     21.738074     21.738074     43.476149
     -3.708709     21.068778     21.068778     42.137555
     -3.698699     20.331841     20.331841     40.663683
     -3.688689     20.225820     20.225820     40.451640
     -3.678679     21.400138     21.400138     42.800275
     -3.668669     24.210338     24.210338     48.420676
     -3.658659     28.550604     28.550604     57.101209
     -3.648649     33.833005     33.833005     67.666009
     -3.638639     39.134314     39.134314     78.268629
     -3.628629     43.462690     43.462690     86.925380
     -3.618619     46.042052     46.042052     92.084105
     -3.608609     46.505582     46.505582     93.011164
     -3.598599     44.937950     44.937950     89.875900
     -3.588589     41.778997     41.778997     83.557994
     -3.578579     37.653927     37.653927     75.307855
     -3.568569     33.200870     33.200870     66.401739
     -3.558559     28.937963     28.937963     57.875926
     -3.548549     25.182269     25.182269     50.364538
     -3.538539     22.022811     22.022811     44.045621
     -3.528529     19.352275     19.352275     38.704550
     -3.518519     16.955272     16.955272     33.910545
     -3.508509     14.628640     14.628640     29.257279
     -3.498498     12.287591     12.287591     24.575182
     -3.488488     10.012833     10.012833     20.025667
     -3.478478      8.021907      8.021907     16.043814
     -3.468468      6.583996      6.583996     13.167992
     -3.458458      5.917720      5.917720     11.835440
     -3.448448      6.108679      6.108679     12.217358
     -3.438438      7.069060      7.069060     14.138119
     -3.428428      8.549673      8.549673     17.099346
     -3.418418     10.207412     10.207412     20.414824
     -3.408408     11.719544     11.719544     23.439089
     -3.398398     12.915285     12.915285     25.830569
     -3.388388     13.874367     13.874367     27.748735
     -3.378378     14.940617     14.940617     29.881235
     -3.368368     16.626298     16.626298     33.252596
     -3.358358     19.430052     19.430052     38.860103
     -3.348348     23.631653     23.631653     47.263306
     -3.338338     29.138014     29.138014     58.276028
     -3.328328     35.433744     35.433744     70.867489
     -3.318318     41.652132     41.652132     83.304265
     -3.308308     46.748700     46.748700     93.497400
     -3.298298     49.737826     49.737826     99.475652
     -3.288288     49.938527     49.938527     99.877054
     -3.278278     47.164232     47.164232     94.328464
     -3.268268     41.792063     41.792063     83.584125
     -3.258258     34.675408     34.675408     69.350816
     -3.248248     26.920550     26.920550     53.841099
     -3.238238     19.607498     19.607498     39.214996
     -3.228228     13.558573     13.558573     27.117146
     -3.218218      9.227182      9.227182     18.454363
     -3.208208      6.713705      6.713705     13.427411
     -3.198198      5.858905      5.858905     11.717810
     -3.188188      6.350969      6.350969     12.701938
     -3.178178      7.809568      7.809568     15.619136
     -3.168168      9.849482      9.849482     19.698963
     -3.158158     12.144175     12.144175     24.288349
     -3.148148     14.494019     14.494019     28.988039
     -3.138138     16.871818     16.871818     33.743635
     -3.128128     19.402603     19.402603     38.805206
     -3.118118     22.257767     22.257767     44.515533
     -3.108108     25.497135     25.497135     50.994270
     -3.098098     28.940063     28.940063     57.880126
     -3.088088     32.148568     32.148568     64.297136
     -3.078078     34.551034     34.551034     69.102068
     -3.068068     35.653808     35.653808     71.307616
     -3.058058     35.232409     35.232409     70.464818
     -3.048048     33.402824     33.402824     66.805647
     -3.038038     30.543209     30.543209     61.086418
     -3.028028     27.122537     27.122537     54.245074
     -3.018018     23.539575     23.539575     47.079150
     -3.008008     20.055506     20.055506     40.111012
     -2.997998     16.835354     16.835354     33.670707
     -2.987988     14.046330     14.046330     28.092659
     -2.977978     11.936783     11.936783     23.873566
     -2.967968     10.843545     10.843545     21.687091
     -2.957958     11.121760     11.121760     22.243521
     -2.947948     13.027957     13.027957     26.055914
     -2.937938     16.600825     16.600825     33.201650
     -2.927928     21.581138     21.581138     43.162276
     -2.917918     27.402978     27.402978     54.805957
     -2.907908     33.274258     33.274258     66.548516
     -2.897898     38.340703     38.340703     76.681406
     -2.887888     41.894364     41.894364     83.788728
     -2.877878     43.558555     43.558555     87.117110
     -2.867868     43.375678     43.375678     86.751356
     -2.857858     41.754739     41.754739     83.509478
     -2.847848     39.293845     39.293845     78.587690
     -2.837838     36.552125     36.552125     73.104250
     -2.827828     33.872086     33.872086     67.744173
     -2.817818     31.328834     31.328834     62.657668
     -2.807808     28.816860     28.816860     57.633720
     -2.797798     26.213772     26.213772     52.427543
     -2.787788     23.523749     23.523749     47.047497
     -2.777778     20.922361     20.922361     41.844723
     -2.767768     18.686629     18.686629     37.373259
     -2.757758     17.062517     17.062517     34.125033
     -2.747748     16.155980     16.155980     32.311960
     -2.737738     15.913437     15.913437     31.826874
     -2.727728     16.196120     16.196120     32.392240
     -2.717718     16.889391     16.889391     33.778782
     -2.707708     17.965014     17.965014     35.930028
     -2.697698     19.449212     19.449212     38.898424
     -2.687688     21.320475     21.320475     42.640951
     -2.677678     23.418767     23.418767     46.837535
     -2.667668     25.447679     25.447679     50.895358
     -2.657658     27.088480     27.088480     54.176960
     -2.647648     28.162156     28.162156     56.324313
     -2.637638     28.733506     28.733506     57.467012
     -2.627628     29.083746     29.083746     58.167493
     -2.617618     29.563278     29.563278     59.126556
     -2.607608     30.412376     30.412376     60.824751
     -2.597598     31.650329     31.650329     63.300659
     -2.587588     33.078833     33.078833     66.157666
     -2.577578     34.370231     34.370231     68.740463
     -2.567568     35.173161     35.173161     70.346321
     -2.557558     35.187714     35.187714     70.375428
     -2.547548     34.210335     34.210335     68.420669
     -2.537538     32.176610     32.176610     64.353219
     -2.527528     29.214925     29.214925     58.429850
     -2.517518     25.685556     25.685556     51.371111
     -2.507508     22.158903     22.158903     44.317806
     -2.497497     19.306318     19.306318     38.612637
     -2.487487     17.724601     17.724601     35.449202
     -2.477477     17.757433     17.757433     35.514866
     -2.467467     19.387321     19.387321     38.774643
     -2.457457     22.246265     22.246265     44.492530
     -2.447447     25.746291     25.746291     51.492581
     -2.437437     29.282081     29.282081     58.564162
     -2.427427     32.425644     32.425644     64.851287
     -2.417417     35.031297     35.031297     70.062594
     -2.407407     37.203230     37.203230     74.406460
     -2.397397     39.138063     39.138063     78.276126
     -2.387387     40.917055     40.917055     81.834110
     -2.377377     42.356060     42.356060     84.712119
     -2.367367     43.003249     43.003249     86.006498
     -2.357357     42.305210     42.305210     84.610421
     -2.347347     39.872028     39.872028     79.744056
     -2.337337     35.711808     35.711808     71.423616
     -2.327327     30.314897     30.314897     60.629794
     -2.317317     24.545827     24.545827     49.091654
     -2.307307     19.399091     19.399091     38.798183
     -2.297297     15.732591     15.732591     31.465182
     -2.287287     14.081483     14.081483     28.162967
     -2.277277     14.595400     14.595400     29.190800
     -2.267267     17.079914     17.079914     34.159828
     -2.257257     21.092648     21.092648     42.185296
     -2.247247     26.048533     26.048533     52.097065
     -2.237237     31.309155     31.309155     62.618310
     -2.227227     36.249866     36.249866     72.499731
     -2.217217     40.308871     40.308871     80.617742
     -2.207207     43.027280     43.027280     86.054559
     -2.197197     44.090000     44.090000     88.180000
     -2.187187     43.372375     43.372375     86.744750
     -2.177177     40.983863     40.983863     81.967726
     -2.167167     37.282688     37.282688     74.565376
     -2.157157     32.828727     32.828727     65.657454
     -2.147147     28.260536     28.260536     56.521071
     -2.137137     24.124267     24.124267     48.248535
     -2.127127     20.722250     20.722250     41.444499
     -2.117117     18.054319     18.054319     36.108638
     -2.107107     15.883418     15.883418     31.766836
     -2.097097     13.891278     13.891278     27.782555
     -2.087087     11.843532     11.843532     23.687063
     -2.077077      9.686730      9.686730     19.373461
     -2.067067      7.546750      7.546750     15.093500
     -2.057057      5.653984      5.653984     11.307968
     -2.047047      4.249231      4.249231      8.498461
     -2.037037      3.513995      3.513995      7.027989
     -2.027027      3.536870      3.536870      7.073740
     -2.017017      4.301792      4.301792      8.603584
     -2.007007      5.681499      5.681499     11.362999
     -1.996997      7.436767      7.436767     14.873534
     -1.986987      9.239782      9.239782     18.479564
     -1.976977     10.739439     10.739439     21.478878
     -1.966967     11.663259     11.663259     23.326519
     -1.956957     11.919723     11.919723     23.839446
     -1.946947     11.649770     11.649770     23.299540
     -1.936937     11.191807     11.191807     22.383614
     -1.926927     10.964730     10.964730     21.929460
     -1.916917     11.314733     11.314733     22.629466
     -1.906907     12.389646     12.389646     24.779293
     -1.896897     14.090150     14.090150     28.180300
     -1.886887     16.110707     16.110707     32.221414
     -1.876877     18.045694     18.045694     36.091388
     -1.866867     19.516096     19.516096     39.032193
     -1.856857     20.274427     20.274427     40.548853
     -1.846847     20.261563     20.261563     40.523127
     -1.836837     19.606057     19.606057     39.212113
     -1.826827     18.568149     18.568149     37.136298
     -1.816817     17.441767     17.441767     34.883534
     -1.806807     16.443228     16.443228     32.886455
     -1.796797     15.629573     15.629573     31.259147
     -1.786787     14.886720     14.886720     29.773440
     -1.776777     13.998681     13.998681     27.997362
     -1.766767     12.766060     12.766060     25.532120
     -1.756757     11.113105     11.113105     22.226210
     -1.746747      9.130047      9.130047     18.260095
     -1.736737      7.037056      7.037056     14.074112
     -1.726727      5.100353      5.100353     10.200706
     -1.716717      3.550748      3.550748      7.101496
     -1.706707      2.541314      2.541314      5.082627
     -1.696697      2.148560      2.148560      4.297121
     -1.686687      2.393969      2.393969      4.787939
     -1.676677      3.255854      3.255854      6.511707
     -1.666667      4.656159      4.656159      9.312318
     -1.656657      6.431783      6.431783     12.863566
     -1.646647      8.319502      8.319502     16.639004
     -1.636637      9.984623      9.984623     19.969245
     -1.626627     11.102778     11.102778     22.205555
