# EIG2DOS: Utility for SIESTA to obtain the electronic density of states
#  E. Artacho, Apr 1999, A. Garcia, Apr 2012
#  Nick R. Papior, Feb 2017
# ------------------------------------------
# Eigenvalues calculated from a non-polarized calculation
# Eigenvalues read from siesta.EIG
# Kpoint weights read from siesta.KP
# Using smearing parameter:   0.0500
# Using 1000 points in the energy range
# Selected bands: 1 to: 2981
# Emin, Emax in file for selected band(s):    -27.0869780    218.3446970
# Nbands, Nspin, Nk   =   2981     1     1
# E_F                 =    -4.2611 eV --> (shifted to ZERO)
# Broadening          =     0.0500 eV
#
#        E            N(up)  (=)   N(down)         Ntot
     -5.000000     34.660943     34.660943     69.321886
     -4.989990     38.294527     38.294527     76.589055
     -4.979980     41.497287     41.497287     82.994573
     -4.969970     43.681431     43.681431     87.362862
     -4.959960     44.424806     44.424806     88.849612
     -4.949950     43.587058     43.587058     87.174117
     -4.939940     41.349647     41.349647     82.699294
     -4.929930     38.179620     38.179620     76.359241
     -4.919920     34.746239     34.746239     69.492478
     -4.909910     31.821784     31.821784     63.643569
     -4.899900     30.174871     30.174871     60.349741
     -4.889890     30.440324     30.440324     60.880649
     -4.879880     32.953949     32.953949     65.907899
     -4.869870     37.581903     37.581903     75.163806
     -4.859860     43.625616     43.625616     87.251232
     -4.849850     49.895458     49.895458     99.790915
     -4.839840     54.988843     54.988843    109.977687
     -4.829830     57.701127     57.701127    115.402255
     -4.819820     57.406426     57.406426    114.812853
     -4.809810     54.237810     54.237810    108.475620
     -4.799800     48.987885     48.987885     97.975770
     -4.789790     42.788943     42.788943     85.577887
     -4.779780     36.730971     36.730971     73.461943
     -4.769770     31.579634     31.579634     63.159269
     -4.759760     27.675941     27.675941     55.351883
     -4.749750     24.997486     24.997486     49.994972
     -4.739740     23.299938     23.299938     46.599876
     -4.729730     22.256475     22.256475     44.512951
     -4.719720     21.549612     21.549612     43.099224
     -4.709710     20.910672     20.910672     41.821344
     -4.699700     20.127889     20.127889     40.255778
     -4.689690     19.051986     19.051986     38.103972
     -4.679680     17.620658     17.620658     35.241316
     -4.669670     15.904159     15.904159     31.808318
     -4.659660     14.151599     14.151599     28.303199
     -4.649650     12.804366     12.804366     25.608732
     -4.639640     12.447470     12.447470     24.894939
     -4.629630     13.688795     13.688795     27.377590
     -4.619620     16.981501     16.981501     33.963001
     -4.609610     22.430792     22.430792     44.861584
     -4.599600     29.649975     29.649975     59.299949
     -4.589590     37.741727     37.741727     75.483454
     -4.579580     45.459488     45.459488     90.918976
     -4.569570     51.539531     51.539531    103.079062
     -4.559560     55.105828     55.105828    110.211656
     -4.549550     55.986582     55.986582    111.973164
     -4.539540     54.791868     54.791868    109.583736
     -4.529530     52.694857     52.694857    105.389714
     -4.519520     50.991437     50.991437    101.982874
     -4.509510     50.615701     50.615701    101.231403
     -4.499499     51.809086     51.809086    103.618172
     -4.489489     54.070776     54.070776    108.141551
     -4.479479     56.392582     56.392582    112.785165
     -4.469469     57.662381     57.662381    115.324761
     -4.459459     57.060589     57.060589    114.121178
     -4.449449     54.298127     54.298127    108.596253
     -4.439439     49.633883     49.633883     99.267767
     -4.429429     43.714704     43.714704     87.429408
     -4.419419     37.346121     37.346121     74.692242
     -4.409409     31.299458     31.299458     62.598915
     -4.399399     26.204537     26.204537     52.409074
     -4.389389     22.511738     22.511738     45.023475
     -4.379379     20.476210     20.476210     40.952421
     -4.369369     20.134089     20.134089     40.268177
     -4.359359     21.282216     21.282216     42.564432
     -4.349349     23.500104     23.500104     47.000209
     -4.339339     26.241592     26.241592     52.483184
     -4.329329     28.982280     28.982280     57.964560
     -4.319319     31.368850     31.368850     62.737700
     -4.309309     33.306875     33.306875     66.613751
     -4.299299     34.949790     34.949790     69.899580
     -4.289289     36.594132     36.594132     73.188263
     -4.279279     38.520316     38.520316     77.040632
     -4.269269     40.832934     40.832934     81.665868
     -4.259259     43.354693     43.354693     86.709386
     -4.249249     45.619782     45.619782     91.239565
     -4.239239     46.990809     46.990809     93.981619
     -4.229229     46.879903     46.879903     93.759805
     -4.219219     44.997600     44.997600     89.995200
     -4.209209     41.516352     41.516352     83.032704
     -4.199199     37.056136     37.056136     74.112273
     -4.189189     32.481759     32.481759     64.963518
     -4.179179     28.601185     28.601185     57.202369
     -4.169169     25.907913     25.907913     51.815825
     -4.159159     24.482967     24.482967     48.965934
     -4.149149     24.083322     24.083322     48.166644
     -4.139139     24.349752     24.349752     48.699504
     -4.129129     25.018190     25.018190     50.036379
     -4.119119     26.030049     26.030049     52.060098
     -4.109109     27.493000     27.493000     54.986000
     -4.099099     29.517223     29.517223     59.034446
     -4.089089     32.016413     32.016413     64.032826
     -4.079079     34.591132     34.591132     69.182264
     -4.069069     36.582841     36.582841     73.165682
     -4.059059     37.301436     37.301436     74.602872
     -4.049049     36.326973     36.326973     72.653946
     -4.039039     33.730637     33.730637     67.461275
     -4.029029     30.094160     30.094160     60.188319
     -4.019019     26.315636     26.315636     52.631273
     -4.009009     23.304603     23.304603     46.609206
     -3.998999     21.717282     21.717282     43.434563
     -3.988989     21.839588     21.839588     43.679177
     -3.978979     23.628545     23.628545     47.257090
     -3.968969     26.840214     26.840214     53.680427
     -3.958959     31.152403     31.152403     62.304807
     -3.948949     36.231812     36.231812     72.463624
     -3.938939     41.754996     41.754996     83.509992
     -3.928929     47.422377     47.422377     94.844754
     -3.918919     52.987377     52.987377    105.974755
     -3.908909     58.282632     58.282632    116.565264
     -3.898899     63.203632     63.203632    126.407263
     -3.888889     67.630783     67.630783    135.261567
     -3.878879     71.320490     71.320490    142.640979
     -3.868869     73.836134     73.836134    147.672269
     -3.858859     74.587281     74.587281    149.174562
     -3.848849     72.995112     72.995112    145.990223
     -3.838839     68.730974     68.730974    137.461948
     -3.828829     61.924278     61.924278    123.848556
     -3.818819     53.236946     53.236946    106.473891
     -3.808809     43.756204     43.756204     87.512408
     -3.798799     34.737004     34.737004     69.474009
     -3.788789     27.287744     27.287744     54.575487
     -3.778779     22.108863     22.108863     44.217725
     -3.768769     19.362546     19.362546     38.725091
     -3.758759     18.696892     18.696892     37.393784
     -3.748749     19.398296     19.398296     38.796591
     -3.738739     20.617631     20.617631     41.235261
     -3.728729     21.608977     21.608977     43.217953
     -3.718719     21.925548     21.925548     43.851096
     -3.708709     21.529185     21.529185     43.058370
     -3.698699     20.785732     20.785732     41.571464
     -3.688689     20.340947     20.340947     40.681893
     -3.678679     20.901334     20.901334     41.802667
     -3.668669     22.977347     22.977347     45.954693
     -3.658659     26.670952     26.670952     53.341904
     -3.648649     31.589027     31.589027     63.178054
     -3.638639     36.926984     36.926984     73.853967
     -3.628629     41.700318     41.700318     83.400637
     -3.618619     45.035546     45.035546     90.071092
     -3.608609     46.405242     46.405242     92.810484
     -3.598599     45.724187     45.724187     91.448375
     -3.588589     43.295671     43.295671     86.591343
     -3.578579     39.662173     39.662173     79.324345
     -3.568569     35.435264     35.435264     70.870527
     -3.558559     31.156282     31.156282     62.312564
     -3.548549     27.204554     27.204554     54.409109
     -3.538539     23.753749     23.753749     47.507497
     -3.528529     20.779975     20.779975     41.559950
     -3.518519     18.125582     18.125582     36.251164
     -3.508509     15.605087     15.605087     31.210174
     -3.498498     13.114457     13.114457     26.228914
     -3.488488     10.696441     10.696441     21.392882
     -3.478478      8.534683      8.534683     17.069365
     -3.468468      6.884899      6.884899     13.769798
     -3.458458      5.977596      5.977596     11.955193
     -3.448448      5.930260      5.930260     11.860520
     -3.438438      6.694572      6.694572     13.389144
     -3.428428      8.051158      8.051158     16.102315
     -3.418418      9.656775      9.656775     19.313551
     -3.408408     11.139990     11.139990     22.279981
     -3.398398     12.223998     12.223998     24.447996
     -3.388388     12.834888     12.834888     25.669775
     -3.378378     13.147487     13.147487     26.294975
     -3.368368     13.541398     13.541398     27.082795
     -3.358358     14.479579     14.479579     28.959158
     -3.348348     16.356134     16.356134     32.712267
     -3.338338     19.366297     19.366297     38.732594
     -3.328328     23.429953     23.429953     46.859907
     -3.318318     28.172604     28.172604     56.345208
     -3.308308     32.958508     32.958508     65.917015
     -3.298298     36.980749     36.980749     73.961498
     -3.288288     39.418005     39.418005     78.836010
     -3.278278     39.643796     39.643796     79.287592
     -3.268268     37.427588     37.427588     74.855176
     -3.258258     33.037764     33.037764     66.075529
     -3.248248     27.181735     27.181735     54.363470
     -3.238238     20.794630     20.794630     41.589261
     -3.228228     14.766447     14.766447     29.532894
     -3.218218      9.724229      9.724229     19.448457
     -3.208208      5.946085      5.946085     11.892169
     -3.198198      3.410740      3.410740      6.821479
     -3.188188      1.928944      1.928944      3.857887
     -3.178178      1.288400      1.288400      2.576800
     -3.168168      1.363921      1.363921      2.727842
     -3.158158      2.172974      2.172974      4.345948
     -3.148148      3.873563      3.873563      7.747126
     -3.138138      6.705060      6.705060     13.410120
     -3.128128     10.875925     10.875925     21.751850
     -3.118118     16.417802     16.417802     32.835603
     -3.108108     23.052426     23.052426     46.104852
     -3.098098     30.138261     30.138261     60.276521
     -3.088088     36.753550     36.753550     73.507101
     -3.078078     41.920965     41.920965     83.841929
     -3.068068     44.904510     44.904510     89.809020
     -3.058058     45.454740     45.454740     90.909481
     -3.048048     43.883996     43.883996     87.767992
     -3.038038     40.926998     40.926998     81.853997
     -3.028028     37.447178     37.447178     74.894357
     -3.018018     34.126047     34.126047     68.252095
     -3.008008     31.277149     31.277149     62.554298
     -2.997998     28.856880     28.856880     57.713759
     -2.987988     26.643340     26.643340     53.286681
     -2.977978     24.477043     24.477043     48.954087
     -2.967968     22.439741     22.439741     44.879483
     -2.957958     20.889497     20.889497     41.778994
     -2.947948     20.342384     20.342384     40.684768
     -2.937938     21.257580     21.257580     42.515161
     -2.927928     23.818212     23.818212     47.636424
     -2.917918     27.797889     27.797889     55.595777
     -2.907908     32.568861     32.568861     65.137723
     -2.897898     37.255437     37.255437     74.510874
     -2.887888     40.982088     40.982088     81.964175
     -2.877878     43.127547     43.127547     86.255094
     -2.867868     43.489935     43.489935     86.979870
     -2.857858     42.300220     42.300220     84.600441
     -2.847848     40.082625     40.082625     80.165250
     -2.837838     37.425701     37.425701     74.851402
     -2.827828     34.765795     34.765795     69.531590
     -2.817818     32.275211     32.275211     64.550422
     -2.807808     29.893310     29.893310     59.786620
     -2.797798     27.466819     27.466819     54.933639
     -2.787788     24.913213     24.913213     49.826426
     -2.777778     22.315963     22.315963     44.631926
     -2.767768     19.904906     19.904906     39.809813
     -2.757758     17.943551     17.943551     35.887101
     -2.747748     16.598553     16.598553     33.197106
     -2.737738     15.873844     15.873844     31.747688
     -2.727728     15.648287     15.648287     31.296574
     -2.717718     15.787628     15.787628     31.575255
     -2.707708     16.251567     16.251567     32.503134
     -2.697698     17.118620     17.118620     34.237239
     -2.687688     18.506433     18.506433     37.012865
     -2.677678     20.438878     20.438878     40.877755
     -2.667668     22.753639     22.753639     45.507278
     -2.657658     25.123245     25.123245     50.246490
     -2.647648     27.188829     27.188829     54.377659
     -2.637638     28.728164     28.728164     57.456327
     -2.627628     29.752753     29.752753     59.505506
     -2.617618     30.473957     30.473957     60.947915
     -2.607608     31.163947     31.163947     62.327895
     -2.597598     32.001618     32.001618     64.003235
     -2.587588     32.991136     32.991136     65.982273
     -2.577578     33.979300     33.979300     67.958600
     -2.567568     34.730623     34.730623     69.461247
     -2.557558     34.998859     34.998859     69.997717
     -2.547548     34.567671     34.567671     69.135342
     -2.537538     33.280622     33.280622     66.561245
     -2.527528     31.092921     31.092921     62.185842
     -2.517518     28.143946     28.143946     56.287892
     -2.507508     24.804868     24.804868     49.609735
     -2.497497     21.645003     21.645003     43.290006
     -2.487487     19.298283     19.298283     38.596567
     -2.477477     18.271286     18.271286     36.542573
     -2.467467     18.774844     18.774844     37.549688
     -2.457457     20.657244     20.657244     41.314487
     -2.447447     23.472600     23.472600     46.945200
     -2.437437     26.657169     26.657169     53.314338
     -2.427427     29.737381     29.737381     59.474762
     -2.417417     32.477511     32.477511     64.955022
     -2.407407     34.900264     34.900264     69.800528
     -2.397397     37.171290     37.171290     74.342581
     -2.387387     39.404202     39.404202     78.808404
     -2.377377     41.485521     41.485521     82.971042
     -2.367367     43.016436     43.016436     86.032872
     -2.357357     43.417066     43.417066     86.834132
     -2.347347     42.159455     42.159455     84.318910
     -2.337337     39.026116     39.026116     78.052233
     -2.327327     34.270746     34.270746     68.541492
     -2.317317     28.602263     28.602263     57.204526
     -2.307307     22.999561     22.999561     45.999122
     -2.297297     18.441913     18.441913     36.883825
     -2.287287     15.665644     15.665644     31.331288
     -2.277277     15.025318     15.025318     30.050637
     -2.267267     16.477865     16.477865     32.955730
     -2.257257     19.659631     19.659631     39.319262
     -2.247247     24.008077     24.008077     48.016154
     -2.237237     28.885633     28.885633     57.771266
     -2.227227     33.677853     33.677853     67.355706
     -2.217217     37.852934     37.852934     75.705869
     -2.207207     40.984940     40.984940     81.969880
     -2.197197     42.758301     42.758301     85.516602
     -2.187187     42.979014     42.979014     85.958027
     -2.177177     41.608536     41.608536     83.217071
     -2.167167     38.809333     38.809333     77.618665
     -2.157157     34.962871     34.962871     69.925741
     -2.147147     30.616911     30.616911     61.233822
     -2.137137     26.352130     26.352130     52.704260
     -2.127127     22.612104     22.612104     45.224209
     -2.117117     19.576974     19.576974     39.153947
     -2.107107     17.148003     17.148003     34.296007
     -2.097097     15.051183     15.051183     30.102367
     -2.087087     13.001595     13.001595     26.003190
     -2.077077     10.841248     10.841248     21.682496
     -2.067067      8.588083      8.588083     17.176166
     -2.057057      6.391121      6.391121     12.782242
     -2.047047      4.436090      4.436090      8.872180
     -2.037037      2.859471      2.859471      5.718942
     -2.027027      1.707775      1.707775      3.415550
     -2.017017      0.945142      0.945142      1.890284
     -2.007007      0.489040      0.489040      0.978081
     -1.996997      0.249795      0.249795      0.499590
     -1.986987      0.159304      0.159304      0.318609
     -1.976977      0.186377      0.186377      0.372754
     -1.966967      0.342799      0.342799      0.685599
     -1.956957      0.683861      0.683861      1.367722
     -1.946947      1.302585      1.302585      2.605170
     -1.936937      2.312942      2.312942      4.625884
     -1.926927      3.817995      3.817995      7.635990
     -1.916917      5.865750      5.865750     11.731499
     -1.906907      8.405694      8.405694     16.811389
     -1.896897     11.265790     11.265790     22.531580
     -1.886887     14.166442     14.166442     28.332884
     -1.876877     16.774100     16.774100     33.548201
     -1.866867     18.780126     18.780126     37.560252
     -1.856857     19.980394     19.980394     39.960788
     -1.846847     20.331925     20.331925     40.663851
     -1.836837     19.970397     19.970397     39.940793
     -1.826827     19.180912     19.180912     38.361824
     -1.816817     18.323851     18.323851     36.647702
     -1.806807     17.731512     17.731512     35.463023
     -1.796797     17.607157     17.607157     35.214314
     -1.786787     17.964348     17.964348     35.928697
     -1.776777     18.630736     18.630736     37.261472
     -1.766767     19.311434     19.311434     38.622869
     -1.756757     19.681854     19.681854     39.363709
     -1.746747     19.475066     19.475066     38.950133
     -1.736737     18.543099     18.543099     37.086197
     -1.726727     16.888535     16.888535     33.777071
     -1.716717     14.668874     14.668874     29.337748
     -1.706707     12.173127     12.173127     24.346255
     -1.696697      9.769433      9.769433     19.538866
     -1.686687      7.829692      7.829692     15.659384
     -1.676677      6.646984      6.646984     13.293967
     -1.666667      6.365304      6.365304     12.730608
     -1.656657      6.938116      6.938116     13.876232
     -1.646647      8.127422      8.127422     16.254844
     -1.636637      9.550959      9.550959     19.101918
     -1.626627     10.776868     10.776868     21.553737
