# EIG2DOS: Utility for SIESTA to obtain the electronic density of states
#  E. Artacho, Apr 1999, A. Garcia, Apr 2012
#  Nick R. Papior, Feb 2017
# ------------------------------------------
# Eigenvalues calculated from a non-polarized calculation
# Eigenvalues read from siesta.EIG
# Kpoint weights read from siesta.KP
# Using smearing parameter:   0.0500
# Using 1000 points in the energy range
# Selected bands: 1 to: 2981
# Emin, Emax in file for selected band(s):    -27.2900980    218.3921160
# Nbands, Nspin, Nk   =   2981     1     1
# E_F                 =    -4.2026 eV --> (shifted to ZERO)
# Broadening          =     0.0500 eV
#
#        E            N(up)  (=)   N(down)         Ntot
     -5.000000     32.205894     32.205894     64.411788
     -4.989990     37.294398     37.294398     74.588795
     -4.979980     42.011504     42.011504     84.023007
     -4.969970     45.529731     45.529731     91.059461
     -4.959960     47.179146     47.179146     94.358292
     -4.949950     46.672210     46.672210     93.344421
     -4.939940     44.204163     44.204163     88.408327
     -4.929930     40.404589     40.404589     80.809177
     -4.919920     36.183064     36.183064     72.366129
     -4.909910     32.537914     32.537914     65.075828
     -4.899900     30.374974     30.374974     60.749948
     -4.889890     30.344935     30.344935     60.689869
     -4.879880     32.695101     32.695101     65.390202
     -4.869870     37.157466     37.157466     74.314932
     -4.859860     42.931010     42.931010     85.862021
     -4.849850     48.816597     48.816597     97.633194
     -4.839840     53.507504     53.507504    107.015007
     -4.829830     55.954287     55.954287    111.908574
     -4.819820     55.665564     55.665564    111.331129
     -4.809810     52.820323     52.820323    105.640647
     -4.799800     48.150614     48.150614     96.301228
     -4.789790     42.658779     42.658779     85.317558
     -4.779780     37.300301     37.300301     74.600602
     -4.769770     32.758208     32.758208     65.516415
     -4.759760     29.369667     29.369667     58.739334
     -4.749750     27.184342     27.184342     54.368684
     -4.739740     26.081568     26.081568     52.163136
     -4.729730     25.868709     25.868709     51.737417
     -4.719720     26.317252     26.317252     52.634505
     -4.709710     27.143327     27.143327     54.286655
     -4.699700     27.980333     27.980333     55.960665
     -4.689690     28.402708     28.402708     56.805417
     -4.679680     28.031845     28.031845     56.063689
     -4.669670     26.699254     26.699254     53.398508
     -4.659660     24.591423     24.591423     49.182846
     -4.649650     22.290227     22.290227     44.580455
     -4.639640     20.662144     20.662144     41.324288
     -4.629630     20.615221     20.615221     41.230442
     -4.619620     22.798766     22.798766     45.597532
     -4.609610     27.345598     27.345598     54.691195
     -4.599600     33.750121     33.750121     67.500242
     -4.589590     40.943147     40.943147     81.886294
     -4.579580     47.567292     47.567292     95.134584
     -4.569570     52.381244     52.381244    104.762489
     -4.559560     54.653999     54.653999    109.307997
     -4.549550     54.392594     54.392594    108.785188
     -4.539540     52.303537     52.303537    104.607075
     -4.529530     49.499897     49.499897     98.999794
     -4.519520     47.076685     47.076685     94.153370
     -4.509510     45.729083     45.729083     91.458165
     -4.499499     45.558499     45.558499     91.116997
     -4.489489     46.121210     46.121210     92.242419
     -4.479479     46.670558     46.670558     93.341117
     -4.469469     46.472936     46.472936     92.945872
     -4.459459     45.066041     45.066041     90.132082
     -4.449449     42.372805     42.372805     84.745610
     -4.439439     38.659537     38.659537     77.319074
     -4.429429     34.394793     34.394793     68.789586
     -4.419419     30.094776     30.094776     60.189552
     -4.409409     26.221335     26.221335     52.442669
     -4.399399     23.146818     23.146818     46.293637
     -4.389389     21.152092     21.152092     42.304184
     -4.379379     20.412070     20.412070     40.824139
     -4.369369     20.952651     20.952651     41.905303
     -4.359359     22.607476     22.607476     45.214952
     -4.349349     25.024335     25.024335     50.048671
     -4.339339     27.749980     27.749980     55.499960
     -4.329329     30.372793     30.372793     60.745587
     -4.319319     32.661114     32.661114     65.322227
     -4.309309     34.629278     34.629278     69.258555
     -4.299299     36.495470     36.495470     72.990941
     -4.289289     38.543908     38.543908     77.087815
     -4.279279     40.944092     40.944092     81.888185
     -4.269269     43.599136     43.599136     87.198272
     -4.259259     46.091448     46.091448     92.182896
     -4.249249     47.767122     47.767122     95.534244
     -4.239239     47.950113     47.950113     95.900225
     -4.229229     46.215150     46.215150     92.430300
     -4.219219     42.603829     42.603829     85.207659
     -4.209209     37.675581     37.675581     75.351163
     -4.199199     32.353944     32.353944     64.707889
     -4.189189     27.627273     27.627273     55.254546
     -4.179179     24.235200     24.235200     48.470399
     -4.169169     22.475425     22.475425     44.950850
     -4.159159     22.200829     22.200829     44.401658
     -4.149149     22.984540     22.984540     45.969080
     -4.139139     24.359291     24.359291     48.718583
     -4.129129     26.015629     26.015629     52.031259
     -4.119119     27.872171     27.872171     55.744342
     -4.109109     29.993671     29.993671     59.987343
     -4.099099     32.405909     32.405909     64.811819
     -4.089089     34.912913     34.912913     69.825825
     -4.079079     37.032473     37.032473     74.064947
     -4.069069     38.113292     38.113292     76.226583
     -4.059059     37.598066     37.598066     75.196132
     -4.049049     35.305182     35.305182     70.610365
     -4.039039     31.578263     31.578263     63.156526
     -4.029029     27.219209     27.219209     54.438418
     -4.019019     23.236820     23.236820     46.473640
     -4.009009     20.535478     20.535478     41.070955
     -3.998999     19.682680     19.682680     39.365360
     -3.988989     20.832483     20.832483     41.664967
     -3.978979     23.793119     23.793119     47.586238
     -3.968969     28.167171     28.167171     56.334341
     -3.958959     33.487872     33.487872     66.975745
     -3.948949     39.311744     39.311744     78.623487
     -3.938939     45.269447     45.269447     90.538893
     -3.928929     51.092623     51.092623    102.185246
     -3.918919     56.620950     56.620950    113.241900
     -3.908909     61.774149     61.774149    123.548298
     -3.898899     66.476218     66.476218    132.952437
     -3.888889     70.550038     70.550038    141.100075
     -3.878879     73.636677     73.636677    147.273354
     -3.868869     75.202274     75.202274    150.404548
     -3.858859     74.661275     74.661275    149.322551
     -3.848849     71.584482     71.584482    143.168964
     -3.838839     65.909380     65.909380    131.818760
     -3.828829     58.058909     58.058909    116.117818
     -3.818819     48.909482     48.909482     97.818964
     -3.808809     39.610697     39.610697     79.221394
     -3.798799     31.316812     31.316812     62.633625
     -3.788789     24.918670     24.918670     49.837341
     -3.778779     20.856795     20.856795     41.713590
     -3.768769     19.062039     19.062039     38.124077
     -3.758759     19.027883     19.027883     38.055766
     -3.748749     19.984039     19.984039     39.968078
     -3.738739     21.121202     21.121202     42.242405
     -3.728729     21.811060     21.811060     43.622120
     -3.718719     21.770123     21.770123     43.540247
     -3.708709     21.127853     21.127853     42.255706
     -3.698699     20.378002     20.378002     40.756004
     -3.688689     20.217523     20.217523     40.435047
     -3.678679     21.308608     21.308608     42.617217
     -3.668669     24.030244     24.030244     48.060488
     -3.658659     28.303073     28.303073     56.606145
     -3.648649     33.559650     33.559650     67.119300
     -3.638639     38.884658     38.884658     77.769317
     -3.628629     43.280173     43.280173     86.560347
     -3.618619     45.954037     45.954037     91.908074
     -3.608609     46.520123     46.520123     93.040246
     -3.598599     45.046448     45.046448     90.092897
     -3.588589     41.961609     41.961609     83.923217
     -3.578579     37.884943     37.884943     75.769886
     -3.568569     33.453194     33.453194     66.906387
     -3.558559     29.187212     29.187212     58.374424
     -3.548549     25.410724     25.410724     50.821449
     -3.538539     22.222145     22.222145     44.444291
     -3.528529     19.523391     19.523391     39.046783
     -3.518519     17.104655     17.104655     34.209310
     -3.508509     14.762649     14.762649     29.525299
     -3.498498     12.407472     12.407472     24.814944
     -3.488488     10.112810     10.112810     20.225619
     -3.478478      8.091109      8.091109     16.182218
     -3.468468      6.611379      6.611379     13.222758
     -3.458458      5.898618      5.898618     11.797236
     -3.448448      6.052043      6.052043     12.104087
     -3.438438      7.004922      7.004922     14.009844
     -3.428428      8.536256      8.536256     17.072512
     -3.418418     10.336352     10.336352     20.672704
     -3.408408     12.115834     12.115834     24.231669
     -3.398398     13.726167     13.726167     27.452335
     -3.388388     15.240044     15.240044     30.480089
     -3.378378     16.942876     16.942876     33.885752
     -3.368368     19.222324     19.222324     38.444648
     -3.358358     22.396038     22.396038     44.792075
     -3.348348     26.553757     26.553757     53.107513
     -3.338338     31.481620     31.481620     62.963240
     -3.328328     36.688917     36.688917     73.377833
     -3.318318     41.506800     41.506800     83.013601
     -3.308308     45.211669     45.211669     90.423339
     -3.298298     47.147177     47.147177     94.294354
     -3.288288     46.845807     46.845807     93.691615
     -3.278278     44.148478     44.148478     88.296955
     -3.268268     39.289461     39.289461     78.578921
     -3.258258     32.892416     32.892416     65.784833
     -3.248248     25.847057     25.847057     51.694114
     -3.238238     19.097512     19.097512     38.195025
     -3.228228     13.425653     13.425653     26.851306
     -3.218218      9.312994      9.312994     18.625987
     -3.208208      6.914515      6.914515     13.829029
     -3.198198      6.117845      6.117845     12.235691
     -3.188188      6.634356      6.634356     13.268712
     -3.178178      8.084498      8.084498     16.168995
     -3.168168     10.073091     10.073091     20.146183
     -3.158158     12.266923     12.266923     24.533847
     -3.148148     14.472772     14.472772     28.945544
     -3.138138     16.684872     16.684872     33.369744
     -3.128128     19.059012     19.059012     38.118025
     -3.118118     21.796947     21.796947     43.593893
     -3.108108     24.979572     24.979572     49.959144
     -3.098098     28.433289     28.433289     56.866578
     -3.088088     31.713091     31.713091     63.426183
     -3.078078     34.229529     34.229529     68.459057
     -3.068068     35.465294     35.465294     70.930587
     -3.058058     35.172166     35.172166     70.344332
     -3.048048     33.447857     33.447857     66.895713
     -3.038038     30.661520     30.661520     61.323039
     -3.028028     27.282782     27.282782     54.565564
     -3.018018     23.717327     23.717327     47.434654
     -3.008008     20.234104     20.234104     40.468208
     -2.997998     17.002348     17.002348     34.004696
     -2.987988     14.188803     14.188803     28.377606
     -2.977978     12.038908     12.038908     24.077817
     -2.967968     10.887903     10.887903     21.775806
     -2.957958     11.093666     11.093666     22.187331
     -2.947948     12.920732     12.920732     25.841465
     -2.937938     16.419866     16.419866     32.839731
     -2.927928     21.345290     21.345290     42.690580
     -2.917918     27.142588     27.142588     54.285176
     -2.907908     33.026093     33.026093     66.052186
     -2.897898     38.140739     38.140739     76.281477
     -2.887888     41.770150     41.770150     83.540299
     -2.877878     43.523251     43.523251     87.046503
     -2.867868     43.425676     43.425676     86.851351
     -2.857858     41.871859     41.871859     83.743719
     -2.847848     39.451592     39.451592     78.903184
     -2.837838     36.723757     36.723757     73.447515
     -2.827828     34.037313     34.037313     68.074627
     -2.817818     31.476466     31.476466     62.952932
     -2.807808     28.942821     28.942821     57.885641
     -2.797798     26.316422     26.316422     52.632843
     -2.787788     23.599884     23.599884     47.199769
     -2.777778     20.966488     20.966488     41.932977
     -2.767768     18.693578     18.693578     37.387156
     -2.757758     17.030844     17.030844     34.061687
     -2.747748     16.088830     16.088830     32.177660
     -2.737738     15.815408     15.815408     31.630815
     -2.727728     16.068122     16.068122     32.136244
     -2.717718     16.725986     16.725986     33.451973
     -2.707708     17.757984     17.757984     35.515969
     -2.697698     19.196929     19.196929     38.393857
     -2.687688     21.037576     21.037576     42.075152
     -2.677678     23.138570     23.138570     46.277140
     -2.667668     25.213082     25.213082     50.426164
     -2.657658     26.934356     26.934356     53.868713
     -2.647648     28.098613     28.098613     56.197227
     -2.637638     28.740011     28.740011     57.480021
     -2.627628     29.118002     29.118002     58.236004
     -2.617618     29.579979     29.579979     59.159959
     -2.607608     30.381655     30.381655     60.763310
     -2.597598     31.567295     31.567295     63.134589
     -2.587588     32.962125     32.962125     65.924249
     -2.577578     34.253635     34.253635     68.507271
     -2.567568     35.095822     35.095822     70.191645
     -2.557558     35.185696     35.185696     70.371393
     -2.547548     34.308971     34.308971     68.617942
     -2.537538     32.382750     32.382750     64.765500
     -2.527528     29.510692     29.510692     59.021385
     -2.517518     26.027477     26.027477     52.054953
     -2.507508     22.485443     22.485443     44.970887
     -2.497497     19.552991     19.552991     39.105983
     -2.487487     17.841689     17.841689     35.683378
     -2.477477     17.723721     17.723721     35.447442
     -2.467467     19.214893     19.214893     38.429786
     -2.457457     21.975079     21.975079     43.950159
     -2.447447     25.431025     25.431025     50.862049
     -2.437437     28.976183     28.976183     57.952365
     -2.427427     32.168078     32.168078     64.336156
     -2.417417     34.840168     34.840168     69.680335
     -2.407407     37.077856     37.077856     74.155713
     -2.397397     39.068045     39.068045     78.136090
     -2.387387     40.894150     40.894150     81.788299
     -2.377377     42.383269     42.383269     84.766537
     -2.367367     43.096225     43.096225     86.192451
     -2.357357     42.484472     42.484472     84.968945
     -2.347347     40.149433     40.149433     80.298867
     -2.337337     36.078539     36.078539     72.157079
     -2.327327     30.737934     30.737934     61.475868
     -2.317317     24.975208     24.975208     49.950416
     -2.307307     19.782111     19.782111     39.564221
     -2.297297     16.027673     16.027673     32.055346
     -2.287287     14.265718     14.265718     28.531435
     -2.277277     14.664197     14.664197     29.328394
     -2.267267     17.041528     17.041528     34.083056
     -2.257257     20.961998     20.961998     41.923996
     -2.247247     25.843617     25.843617     51.687233
     -2.237237     31.050870     31.050870     62.101740
     -2.227227     35.963816     35.963816     71.927632
     -2.217217     40.026656     40.026656     80.053312
     -2.207207     42.784935     42.784935     85.569869
     -2.197197     43.922526     43.922526     87.845052
     -2.187187     43.305305     43.305305     86.610610
     -2.177177     41.024925     41.024925     82.049850
     -2.167167     37.417729     37.417729     74.835459
     -2.157157     33.025083     33.025083     66.050166
     -2.147147     28.477728     28.477728     56.955457
     -2.137137     24.327873     24.327873     48.655746
     -2.127127     20.894495     20.894495     41.788990
     -2.117117     18.196302     18.196302     36.392603
     -2.107107     16.008141     16.008141     32.016282
     -2.097097     14.011130     14.011130     28.022260
     -2.087087     11.957393     11.957393     23.914786
     -2.077077      9.769645      9.769645     19.539291
     -2.067067      7.541254      7.541254     15.082508
     -2.057057      5.460337      5.460337     10.920674
     -2.047047      3.714931      3.714931      7.429861
     -2.037037      2.430679      2.430679      4.861357
     -2.027027      1.660568      1.660568      3.321136
     -2.017017      1.412824      1.412824      2.825647
     -2.007007      1.686142      1.686142      3.372285
     -1.996997      2.484695      2.484695      4.969391
     -1.986987      3.802105      3.802105      7.604210
     -1.976977      5.584584      5.584584     11.169169
     -1.966967      7.699414      7.699414     15.398828
     -1.956957      9.937447      9.937447     19.874893
     -1.946947     12.062386     12.062386     24.124772
     -1.936937     13.890302     13.890302     27.780605
     -1.926927     15.357439     15.357439     30.714879
     -1.916917     16.533069     16.533069     33.066138
     -1.906907     17.563139     17.563139     35.126277
     -1.896897     18.572867     18.572867     37.145734
     -1.886887     19.582854     19.582854     39.165708
     -1.876877     20.485206     20.485206     40.970412
     -1.866867     21.090726     21.090726     42.181451
     -1.856857     21.220466     21.220466     42.440931
     -1.846847     20.796063     20.796063     41.592126
     -1.836837     19.887449     19.887449     39.774898
     -1.826827     18.695671     18.695671     37.391341
     -1.816817     17.474494     17.474494     34.948988
     -1.806807     16.421551     16.421551     32.843101
     -1.796797     15.588953     15.588953     31.177907
     -1.786787     14.860835     14.860835     29.721669
     -1.776777     14.014653     14.014653     28.029307
     -1.766767     12.837455     12.837455     25.674911
     -1.756757     11.236300     11.236300     22.472600
     -1.746747      9.286709      9.286709     18.573418
     -1.736737      7.201579      7.201579     14.403158
     -1.726727      5.248434      5.248434     10.496867
     -1.716717      3.665277      3.665277      7.330554
     -1.706707      2.613928      2.613928      5.227855
     -1.696697      2.177835      2.177835      4.355669
     -1.686687      2.382660      2.382660      4.765320
     -1.676677      3.209320      3.209320      6.418641
     -1.666667      4.582590      4.582590      9.165180
     -1.656657      6.343217      6.343217     12.686433
     -1.646647      8.231816      8.231816     16.463631
     -1.636637      9.915121      9.915121     19.830241
     -1.626627     11.065480     11.065480     22.130959
