# EIG2DOS: Utility for SIESTA to obtain the electronic density of states
#  E. Artacho, Apr 1999, A. Garcia, Apr 2012
#  Nick R. Papior, Feb 2017
# ------------------------------------------
# Eigenvalues calculated from a non-polarized calculation
# Eigenvalues read from siesta.EIG
# Kpoint weights read from siesta.KP
# Using smearing parameter:   0.0500
# Using 1000 points in the energy range
# Selected bands: 1 to: 2981
# Emin, Emax in file for selected band(s):    -27.0530788    218.3378700
# Nbands, Nspin, Nk   =   2981     1     1
# E_F                 =    -4.2668 eV --> (shifted to ZERO)
# Broadening          =     0.0500 eV
#
#        E            N(up)  (=)   N(down)         Ntot
     -5.000000     37.581130     37.581130     75.162260
     -4.989990     40.140404     40.140404     80.280807
     -4.979980     42.264440     42.264440     84.528880
     -4.969970     43.487320     43.487320     86.974640
     -4.959960     43.494479     43.494479     86.988958
     -4.949950     42.214320     42.214320     84.428640
     -4.939940     39.839611     39.839611     79.679222
     -4.929930     36.792890     36.792890     73.585781
     -4.919920     33.664760     33.664760     67.329519
     -4.909910     31.143721     31.143721     62.287442
     -4.899900     29.930805     29.930805     59.861611
     -4.889890     30.614877     30.614877     61.229754
     -4.879880     33.498916     33.498916     66.997832
     -4.869870     38.416571     38.416571     76.833142
     -4.859860     44.631189     44.631189     89.262379
     -4.849850     50.917012     50.917012    101.834025
     -4.839840     55.855446     55.855446    111.710892
     -4.829830     58.263294     58.263294    116.526588
     -4.819820     57.576704     57.576704    115.153409
     -4.809810     54.014474     54.014474    108.028949
     -4.799800     48.448752     48.448752     96.897504
     -4.789790     42.058162     42.058162     84.116325
     -4.779780     35.935573     35.935573     71.871146
     -4.769770     30.815480     30.815480     61.630960
     -4.759760     26.994162     26.994162     53.988325
     -4.749750     24.410120     24.410120     48.820240
     -4.739740     22.795705     22.795705     45.591410
     -4.729730     21.817326     21.817326     43.634652
     -4.719720     21.162688     21.162688     42.325375
     -4.709710     20.574187     20.574187     41.148373
     -4.699700     19.851279     19.851279     39.702558
     -4.689690     18.851513     18.851513     37.703026
     -4.679680     17.512729     17.512729     35.025458
     -4.669670     15.899618     15.899618     31.799237
     -4.659660     14.253773     14.253773     28.507546
     -4.649650     13.011116     13.011116     26.022231
     -4.639640     12.754301     12.754301     25.508601
     -4.629630     14.088603     14.088603     28.177206
     -4.619620     17.458437     17.458437     34.916874
     -4.609610     22.950162     22.950162     45.900325
     -4.599600     30.149969     30.149969     60.299938
     -4.589590     38.132656     38.132656     76.265313
     -4.579580     45.631040     45.631040     91.262079
     -4.569570     51.369446     51.369446    102.738892
     -4.559560     54.460494     54.460494    108.920988
     -4.549550     54.710353     54.710353    109.420705
     -4.539540     52.696449     52.696449    105.392898
     -4.529530     49.573801     49.573801     99.147601
     -4.519520     46.684495     46.684495     93.368989
     -4.509510     45.124994     45.124994     90.249989
     -4.499499     45.429423     45.429423     90.858846
     -4.489489     47.461978     47.461978     94.923956
     -4.479479     50.521036     50.521036    101.042073
     -4.469469     53.587194     53.587194    107.174388
     -4.459459     55.620623     55.620623    111.241246
     -4.449449     55.824354     55.824354    111.648709
     -4.439439     53.819390     53.819390    107.638781
     -4.429429     49.708028     49.708028     99.416056
     -4.419419     44.027385     44.027385     88.054770
     -4.409409     37.615520     37.615520     75.231040
     -4.399399     31.426050     31.426050     62.852100
     -4.389389     26.331604     26.331604     52.663208
     -4.379379     22.953417     22.953417     45.906833
     -4.369369     21.548993     21.548993     43.097986
     -4.359359     21.983445     21.983445     43.966891
     -4.349349     23.797287     23.797287     47.594574
     -4.339339     26.358678     26.358678     52.717355
     -4.329329     29.056641     29.056641     58.113282
     -4.319319     31.470831     31.470831     62.941663
     -4.309309     33.459479     33.459479     66.918959
     -4.299299     35.140290     35.140290     70.280579
     -4.289289     36.780810     36.780810     73.561620
     -4.279279     38.642907     38.642907     77.285814
     -4.269269     40.832613     40.832613     81.665225
     -4.259259     43.200744     43.200744     86.401489
     -4.249249     45.331487     45.331487     90.662974
     -4.239239     46.641443     46.641443     93.282885
     -4.229229     46.577469     46.577469     93.154938
     -4.219219     44.849391     44.849391     89.698782
     -4.209209     41.593210     41.593210     83.186419
     -4.199199     37.371579     37.371579     74.743159
     -4.189189     32.992183     32.992183     65.984365
     -4.179179     29.222802     29.222802     58.445605
     -4.169169     26.540466     26.540466     53.080932
     -4.159159     25.031277     25.031277     50.062555
     -4.149149     24.472572     24.472572     48.945144
     -4.139139     24.534720     24.534720     49.069439
     -4.129129     24.988033     24.988033     49.976066
     -4.119119     25.809034     25.809034     51.618068
     -4.109109     27.135927     27.135927     54.271854
     -4.099099     29.098399     29.098399     58.196797
     -4.089089     31.613504     31.613504     63.227008
     -4.079079     34.268596     34.268596     68.537192
     -4.069069     36.381087     36.381087     72.762175
     -4.059059     37.235567     37.235567     74.471135
     -4.049049     36.393653     36.393653     72.787306
     -4.039039     33.916791     33.916791     67.833582
     -4.029029     30.380556     30.380556     60.761113
     -4.019019     26.672951     26.672951     53.345902
     -4.009009     23.686399     23.686399     47.372797
     -3.998999     22.058390     22.058390     44.116780
     -3.988989     22.066078     22.066078     44.132156
     -3.978979     23.677887     23.677887     47.355774
     -3.968969     26.682603     26.682603     53.365206
     -3.958959     30.802031     30.802031     61.604062
     -3.948949     35.741908     35.741908     71.483815
     -3.938939     41.199157     41.199157     82.398314
     -3.928929     46.871380     46.871380     93.742761
     -3.918919     52.491718     52.491718    104.983437
     -3.908909     57.866884     57.866884    115.733768
     -3.898899     62.872532     62.872532    125.745063
     -3.888889     67.381796     67.381796    134.763592
     -3.878879     71.155242     71.155242    142.310483
     -3.868869     73.764211     73.764211    147.528423
     -3.858859     74.620244     74.620244    149.240489
     -3.848849     73.134541     73.134541    146.269083
     -3.838839     68.958559     68.958559    137.917117
     -3.828829     62.201295     62.201295    124.402590
     -3.818819     53.514750     53.514750    107.029500
     -3.808809     43.992291     43.992291     87.984582
     -3.798799     34.907815     34.907815     69.815630
     -3.788789     27.391926     27.391926     54.783852
     -3.778779     22.160900     22.160900     44.321800
     -3.768769     19.381963     19.381963     38.763926
     -3.758759     18.699403     18.699403     37.398805
     -3.748749     19.392533     19.392533     38.785065
     -3.738739     20.607121     20.607121     41.214242
     -3.728729     21.596405     21.596405     43.192809
     -3.718719     21.916037     21.916037     43.832075
     -3.708709     21.530689     21.530689     43.061378
     -3.698699     20.806424     20.806424     41.612849
     -3.688689     20.384938     20.384938     40.769875
     -3.678679     20.964834     20.964834     41.929667
     -3.668669     23.047492     23.047492     46.094985
     -3.658659     26.728725     26.728725     53.457449
     -3.648649     31.615932     31.615932     63.231863
     -3.638639     36.912975     36.912975     73.825949
     -3.628629     41.649097     41.649097     83.298195
     -3.618619     44.964126     44.964126     89.928251
     -3.608609     46.337527     46.337527     92.675054
     -3.598599     45.681660     45.681660     91.363320
     -3.588589     43.289818     43.289818     86.579637
     -3.578579     39.691970     39.691970     79.383940
     -3.568569     35.489862     35.489862     70.979723
     -3.558559     31.220321     31.220321     62.440642
     -3.548549     27.262987     27.262987     54.525975
     -3.538539     23.794586     23.794586     47.589173
     -3.528529     20.795361     20.795361     41.590722
     -3.518519     18.112456     18.112456     36.224911
     -3.508509     15.566069     15.566069     31.132137
     -3.498498     13.058463     13.058463     26.116926
     -3.488488     10.638042     10.638042     21.276084
     -3.478478      8.491683      8.491683     16.983366
     -3.468468      6.874437      6.874437     13.748875
     -3.458458      6.011587      6.011587     12.023174
     -3.448448      6.011148      6.011148     12.022296
     -3.438438      6.812509      6.812509     13.625019
     -3.428428      8.183918      8.183918     16.367837
     -3.418418      9.773532      9.773532     19.547064
     -3.408408     11.208942     11.208942     22.417884
     -3.398398     12.221986     12.221986     24.443973
     -3.388388     12.755747     12.755747     25.511495
     -3.378378     13.006026     13.006026     26.012052
     -3.368368     13.371578     13.371578     26.743157
     -3.358358     14.327462     14.327462     28.654923
     -3.348348     16.269213     16.269213     32.538426
     -3.338338     19.381110     19.381110     38.762220
     -3.328328     23.560252     23.560252     47.120504
     -3.318318     28.401540     28.401540     56.803080
     -3.308308     33.239011     33.239011     66.478021
     -3.298298     37.246597     37.246597     74.493195
     -3.288288     39.603533     39.603533     79.207067
     -3.278278     39.705001     39.705001     79.410003
     -3.268268     37.355464     37.355464     74.710928
     -3.258258     32.858006     32.858006     65.716013
     -3.248248     26.941840     26.941840     53.883681
     -3.238238     20.545390     20.545390     41.090779
     -3.228228     14.546240     14.546240     29.092480
     -3.218218      9.551078      9.551078     19.102157
     -3.208208      5.816898      5.816898     11.633797
     -3.198198      3.302909      3.302909      6.605817
     -3.188188      1.798273      1.798273      3.596545
     -3.178178      1.059150      1.059150      2.118300
     -3.168168      0.911061      0.911061      1.822122
     -3.158158      1.303336      1.303336      2.606672
     -3.148148      2.320582      2.320582      4.641164
     -3.138138      4.157564      4.157564      8.315128
     -3.128128      7.058051      7.058051     14.116102
     -3.118118     11.217958     11.217958     22.435915
     -3.108108     16.665580     16.665580     33.331160
     -3.098098     23.153137     23.153137     46.306275
     -3.088088     30.110248     30.110248     60.220496
     -3.078078     36.704333     36.704333     73.408665
     -3.068068     42.017017     42.017017     84.034034
     -3.058058     45.290206     45.290206     90.580411
     -3.048048     46.150075     46.150075     92.300150
     -3.038038     44.713627     44.713627     89.427253
     -3.028028     41.530973     41.530973     83.061946
     -3.018018     37.393131     37.393131     74.786262
     -3.008008     33.094524     33.094524     66.189048
     -2.997998     29.247825     29.247825     58.495650
     -2.987988     26.208121     26.208121     52.416241
     -2.977978     24.105655     24.105655     48.211310
     -2.967968     22.944389     22.944389     45.888777
     -2.957958     22.708822     22.708822     45.417644
     -2.947948     23.427346     23.427346     46.854692
     -2.937938     25.160230     25.160230     50.320460
     -2.927928     27.913733     27.913733     55.827467
     -2.917918     31.523312     31.523312     63.046624
     -2.907908     35.578296     35.578296     71.156593
     -2.897898     39.452773     39.452773     78.905547
     -2.887888     42.456722     42.456722     84.913445
     -2.877878     44.052557     44.052557     88.105113
     -2.867868     44.037178     44.037178     88.074355
     -2.857858     42.598600     42.598600     85.197200
     -2.847848     40.216482     40.216482     80.432965
     -2.837838     37.454109     37.454109     74.908217
     -2.827828     34.742419     34.742419     69.484839
     -2.817818     32.256551     32.256551     64.513102
     -2.807808     29.933524     29.933524     59.867049
     -2.797798     27.605052     27.605052     55.210104
     -2.787788     25.162169     25.162169     50.324339
     -2.777778     22.658553     22.658553     45.317105
     -2.767768     20.300875     20.300875     40.601750
     -2.757758     18.342945     18.342945     36.685890
     -2.747748     16.956148     16.956148     33.912296
     -2.737738     16.159256     16.159256     32.318513
     -2.727728     15.849413     15.849413     31.698825
     -2.717718     15.908250     15.908250     31.816499
     -2.707708     16.305816     16.305816     32.611633
     -2.697698     17.125060     17.125060     34.250119
     -2.687688     18.483534     18.483534     36.967068
     -2.677678     20.402503     20.402503     40.805005
     -2.667668     22.716370     22.716370     45.432740
     -2.657658     25.095010     25.095010     50.190019
     -2.647648     27.178067     27.178067     54.356135
     -2.637638     28.742619     28.742619     57.485237
     -2.627628     29.798987     29.798987     59.597974
     -2.617618     30.555195     30.555195     61.110389
     -2.607608     31.276945     31.276945     62.553891
     -2.597598     32.134434     32.134434     64.268868
     -2.587588     33.123947     33.123947     66.247894
     -2.577578     34.089139     34.089139     68.178278
     -2.567568     34.798596     34.798596     69.597192
     -2.557558     35.016588     35.016588     70.033176
     -2.547548     34.539979     34.539979     69.079958
     -2.537538     33.223574     33.223574     66.447149
     -2.527528     31.028826     31.028826     62.057652
     -2.517518     28.095823     28.095823     56.191647
     -2.507508     24.791946     24.791946     49.583891
     -2.497497     21.679156     21.679156     43.358313
     -2.487487     19.380622     19.380622     38.761243
     -2.477477     18.388914     18.388914     36.777827
     -2.467467     18.899280     18.899280     37.798560
     -2.457457     20.746601     20.746601     41.493203
     -2.447447     23.478502     23.478502     46.957005
     -2.437437     26.535167     26.535167     53.070334
     -2.427427     29.457880     29.457880     58.915760
     -2.417417     32.034215     32.034215     64.068430
     -2.407407     34.314670     34.314670     68.629340
     -2.397397     36.493190     36.493190     72.986380
     -2.387387     38.708066     38.708066     77.416132
     -2.377377     40.861478     40.861478     81.722957
     -2.367367     42.554509     42.554509     85.109019
     -2.357357     43.186067     43.186067     86.372133
     -2.347347     42.186482     42.186482     84.372964
     -2.337337     39.285333     39.285333     78.570665
     -2.327327     34.687851     34.687851     69.375702
     -2.317317     29.074303     29.074303     58.148607
     -2.307307     23.422558     23.422558     46.845117
     -2.297297     18.735816     18.735816     37.471632
     -2.287287     15.788634     15.788634     31.577269
     -2.277277     14.975124     14.975124     29.950248
     -2.267267     16.282837     16.282837     32.565673
     -2.257257     19.364923     19.364923     38.729846
     -2.247247     23.662451     23.662451     47.324902
     -2.237237     28.532978     28.532978     57.065956
     -2.227227     33.354906     33.354906     66.709812
     -2.217217     37.591488     37.591488     75.182975
     -2.207207     40.814417     40.814417     81.628835
     -2.197197     42.704651     42.704651     85.409302
     -2.187187     43.058787     43.058787     86.117574
     -2.177177     41.820978     41.820978     83.641957
     -2.167167     39.131639     39.131639     78.263278
     -2.157157     35.352703     35.352703     70.705407
     -2.147147     31.022569     31.022569     62.045137
     -2.137137     26.726587     26.726587     53.453173
     -2.127127     22.925011     22.925011     45.850022
     -2.117117     19.819712     19.819712     39.639425
     -2.107107     17.330389     17.330389     34.660778
     -2.097097     15.192387     15.192387     30.384773
     -2.087087     13.120144     13.120144     26.240289
     -2.077077     10.948494     10.948494     21.896987
     -2.067067      8.686911      8.686911     17.373822
     -2.057057      6.478790      6.478790     12.957580
     -2.047047      4.508481      4.508481      9.016961
     -2.037037      2.914299      2.914299      5.828598
     -2.027027      1.745729      1.745729      3.491458
     -2.017017      0.969323      0.969323      1.938647
     -2.007007      0.503762      0.503762      1.007524
     -1.996997      0.259701      0.259701      0.519401
     -1.986987      0.169261      0.169261      0.338521
     -1.976977      0.202086      0.202086      0.404171
     -1.966967      0.371661      0.371661      0.743322
     -1.956957      0.735329      0.735329      1.470658
     -1.946947      1.387085      1.387085      2.774170
     -1.936937      2.438676      2.438676      4.877353
     -1.926927      3.985879      3.985879      7.971759
     -1.916917      6.064248      6.064248     12.128496
     -1.906907      8.608649      8.608649     17.217298
     -1.896897     11.436251     11.436251     22.872503
     -1.886887     14.267154     14.267154     28.534308
     -1.876877     16.781421     16.781421     33.562841
     -1.866867     18.694863     18.694863     37.389725
     -1.856857     19.828609     19.828609     39.657218
     -1.846847     20.151720     20.151720     40.303439
     -1.836837     19.785404     19.785404     39.570808
     -1.826827     18.965452     18.965452     37.930904
     -1.816817     17.967661     17.967661     35.935321
     -1.806807     17.014850     17.014850     34.029701
     -1.796797     16.200738     16.200738     32.401477
     -1.786787     15.470737     15.470737     30.941473
     -1.776777     14.678861     14.678861     29.357722
     -1.766767     13.698418     13.698418     27.396836
     -1.756757     12.527958     12.527958     25.055915
     -1.746747     11.330537     11.330537     22.661074
     -1.736737     10.379498     10.379498     20.758997
     -1.726727      9.936478      9.936478     19.872956
     -1.716717     10.125368     10.125368     20.250736
     -1.706707     10.868396     10.868396     21.736792
     -1.696697     11.917697     11.917697     23.835394
     -1.686687     12.965605     12.965605     25.931210
     -1.676677     13.774973     13.774973     27.549946
     -1.666667     14.259689     14.259689     28.519378
     -1.656657     14.473861     14.473861     28.947723
     -1.646647     14.522604     14.522604     29.045208
     -1.636637     14.455769     14.455769     28.911538
     -1.626627     14.216411     14.216411     28.432821
