# EIG2DOS: Utility for SIESTA to obtain the electronic density of states
#  E. Artacho, Apr 1999, A. Garcia, Apr 2012
#  Nick R. Papior, Feb 2017
# ------------------------------------------
# Eigenvalues calculated from a non-polarized calculation
# Eigenvalues read from siesta.EIG
# Kpoint weights read from siesta.KP
# Using smearing parameter:   0.0500
# Using 1000 points in the energy range
# Selected bands: 1 to: 2981
# Emin, Emax in file for selected band(s):    -27.0397038    218.3040570
# Nbands, Nspin, Nk   =   2981     1     1
# E_F                 =    -4.3043 eV --> (shifted to ZERO)
# Broadening          =     0.0500 eV
#
#        E            N(up)  (=)   N(down)         Ntot
     -5.000000     41.913412     41.913412     83.826824
     -4.989990     46.789122     46.789122     93.578244
     -4.979980     50.595696     50.595696    101.191392
     -4.969970     52.785316     52.785316    105.570633
     -4.959960     53.018248     53.018248    106.036495
     -4.949950     51.274648     51.274648    102.549296
     -4.939940     47.885411     47.885411     95.770822
     -4.929930     43.477140     43.477140     86.954279
     -4.919920     38.862736     38.862736     77.725471
     -4.909910     34.919067     34.919067     69.838133
     -4.899900     32.471058     32.471058     64.942117
     -4.889890     32.168754     32.168754     64.337509
     -4.879880     34.336458     34.336458     68.672915
     -4.869870     38.810392     38.810392     77.620784
     -4.859860     44.840926     44.840926     89.681851
     -4.849850     51.161650     51.161650    102.323300
     -4.839840     56.275987     56.275987    112.551975
     -4.829830     58.895086     58.895086    117.790172
     -4.819820     58.351898     58.351898    116.703795
     -4.809810     54.799119     54.799119    109.598238
     -4.799800     49.098768     49.098768     98.197536
     -4.789790     42.469241     42.469241     84.938482
     -4.779780     36.069186     36.069186     72.138373
     -4.769770     30.698701     30.698701     61.397403
     -4.759760     26.702610     26.702610     53.405219
     -4.749750     24.044960     24.044960     48.089919
     -4.739740     22.460796     22.460796     44.921591
     -4.729730     21.598536     21.598536     43.197072
     -4.719720     21.111608     21.111608     42.223217
     -4.709710     20.700143     20.700143     41.400286
     -4.699700     20.124355     20.124355     40.248710
     -4.689690     19.214399     19.214399     38.428797
     -4.679680     17.894362     17.894362     35.788723
     -4.669670     16.223190     16.223190     32.446379
     -4.659660     14.436587     14.436587     28.873174
     -4.649650     12.960882     12.960882     25.921765
     -4.639640     12.371337     12.371337     24.742673
     -4.629630     13.283051     13.283051     26.566103
     -4.619620     16.185036     16.185036     32.370071
     -4.609610     21.251579     21.251579     42.503158
     -4.599600     28.187840     28.187840     56.375680
     -4.589590     36.181023     36.181023     72.362046
     -4.579580     44.017153     44.017153     88.034306
     -4.569570     50.371503     50.371503    100.743007
     -4.559560     54.198809     54.198809    108.397617
     -4.549550     55.079668     55.079668    110.159336
     -4.539540     53.371709     53.371709    106.743418
     -4.529530     50.086402     50.086402    100.172804
     -4.519520     46.532510     46.532510     93.065019
     -4.509510     43.870474     43.870474     87.740947
     -4.499499     42.754046     42.754046     85.508091
     -4.489489     43.184770     43.184770     86.369540
     -4.479479     44.605190     44.605190     89.210379
     -4.469469     46.161492     46.161492     92.322985
     -4.459459     47.017273     47.017273     94.034546
     -4.449449     46.607895     46.607895     93.215790
     -4.439439     44.771572     44.771572     89.543145
     -4.429429     41.748421     41.748421     83.496842
     -4.419419     38.078069     38.078069     76.156137
     -4.409409     34.441461     34.441461     68.882922
     -4.399399     31.489509     31.489509     62.979017
     -4.389389     29.692522     29.692522     59.385044
     -4.379379     29.238253     29.238253     58.476505
     -4.369369     30.001444     30.001444     60.002889
     -4.359359     31.596332     31.596332     63.192664
     -4.349349     33.501341     33.501341     67.002681
     -4.339339     35.219040     35.219040     70.438081
     -4.329329     36.418746     36.418746     72.837491
     -4.319319     37.015314     37.015314     74.030627
     -4.309309     37.164101     37.164101     74.328202
     -4.299299     37.184393     37.184393     74.368786
     -4.289289     37.444432     37.444432     74.888864
     -4.279279     38.242132     38.242132     76.484265
     -4.269269     39.703630     39.703630     79.407259
     -4.259259     41.713571     41.713571     83.427143
     -4.249249     43.896174     43.896174     87.792349
     -4.239239     45.674467     45.674467     91.348934
     -4.229229     46.422981     46.422981     92.845962
     -4.219219     45.684525     45.684525     91.369049
     -4.209209     43.366523     43.366523     86.733046
     -4.199199     39.813338     39.813338     79.626675
     -4.189189     35.698993     35.698993     71.397986
     -4.179179     31.780258     31.780258     63.560517
     -4.169169     28.630736     28.630736     57.261472
     -4.159159     26.486036     26.486036     52.972072
     -4.149149     25.263127     25.263127     50.526253
     -4.139139     24.720322     24.720322     49.440644
     -4.129129     24.656732     24.656732     49.313464
     -4.119119     25.041319     25.041319     50.082638
     -4.109109     26.005355     26.005355     52.010710
     -4.099099     27.702581     27.702581     55.405162
     -4.089089     30.110918     30.110918     60.221836
     -4.079079     32.890210     32.890210     65.780421
     -4.069069     35.396786     35.396786     70.793573
     -4.059059     36.880812     36.880812     73.761624
     -4.049049     36.787690     36.787690     73.575379
     -4.039039     35.012673     35.012673     70.025345
     -4.029029     31.971959     31.971959     63.943918
     -4.019019     28.453001     28.453001     56.906003
     -4.009009     25.329417     25.329417     50.658834
     -3.998999     23.291070     23.291070     46.582139
     -3.988989     22.708774     22.708774     45.417548
     -3.978979     23.655696     23.655696     47.311392
     -3.968969     26.016434     26.016434     52.032869
     -3.958959     29.588819     29.588819     59.177637
     -3.948949     34.127127     34.127127     68.254254
     -3.938939     39.342480     39.342480     78.684961
     -3.928929     44.910680     44.910680     89.821361
     -3.918919     50.517604     50.517604    101.035209
     -3.908909     55.921928     55.921928    111.843857
     -3.898899     60.981113     60.981113    121.962226
     -3.888889     65.599735     65.599735    131.199471
     -3.878879     69.612327     69.612327    139.224654
     -3.868869     72.669141     72.669141    145.338282
     -3.858859     74.212829     74.212829    148.425657
     -3.848849     73.598495     73.598495    147.196990
     -3.838839     70.333545     70.333545    140.667090
     -3.828829     64.338209     64.338209    128.676417
     -3.818819     56.098707     56.098707    112.197414
     -3.808809     46.624873     46.624873     93.249746
     -3.798799     37.213670     37.213670     74.427341
     -3.788789     29.108816     29.108816     58.217633
     -3.778779     23.186157     23.186157     46.372314
     -3.768769     19.769998     19.769998     39.539997
     -3.758759     18.621613     18.621613     37.243227
     -3.748749     19.077299     19.077299     38.154598
     -3.738739     20.276309     20.276309     40.552618
     -3.728729     21.411074     21.411074     42.822149
     -3.718719     21.940912     21.940912     43.881823
     -3.708709     21.724122     21.724122     43.448245
     -3.698699     21.038648     21.038648     42.077296
     -3.688689     20.481465     20.481465     40.962929
     -3.678679     20.764785     20.764785     41.529570
     -3.668669     22.460385     22.460385     44.920771
     -3.658659     25.771109     25.771109     51.542217
     -3.648649     30.414026     30.414026     60.828052
     -3.638639     35.669312     35.669312     71.338624
     -3.628629     40.585704     40.585704     81.171407
     -3.618619     44.264281     44.264281     88.528562
     -3.608609     46.106713     46.106713     92.213425
     -3.598599     45.936778     45.936778     91.873556
     -3.588589     43.972054     43.972054     87.944109
     -3.578579     40.691517     40.691517     81.383034
     -3.568569     36.672659     36.672659     73.345318
     -3.558559     32.452858     32.452858     64.905716
     -3.548549     28.434263     28.434263     56.868525
     -3.538539     24.832541     24.832541     49.665082
     -3.528529     21.672698     21.672698     43.345396
     -3.518519     18.838608     18.838608     37.677217
     -3.508509     16.168287     16.168287     32.336573
     -3.498498     13.560838     13.560838     27.121676
     -3.488488     11.047973     11.047973     22.095946
     -3.478478      8.798448      8.798448     17.596896
     -3.468468      7.058090      7.058090     14.116180
     -3.458458      6.056552      6.056552     12.113104
     -3.448448      5.918716      5.918716     11.837431
     -3.438438      6.608042      6.608042     13.216084
     -3.428428      7.916072      7.916072     15.832145
     -3.418418      9.504163      9.504163     19.008325
     -3.408408     10.994919     10.994919     21.989837
     -3.398398     12.093971     12.093971     24.187943
     -3.388388     12.701919     12.701919     25.403838
     -3.378378     12.968001     12.968001     25.936003
     -3.368368     13.255034     13.255034     26.510069
     -3.358358     14.024180     14.024180     28.048360
     -3.348348     15.684423     15.684423     31.368846
     -3.338338     18.461235     18.461235     36.922469
     -3.328328     22.318296     22.318296     44.636591
     -3.318318     26.936070     26.936070     53.872140
     -3.308308     31.737669     31.737669     63.475338
     -3.298298     35.962251     35.962251     71.924503
     -3.288288     38.797977     38.797977     77.595953
     -3.278278     39.572329     39.572329     79.144658
     -3.268268     37.954698     37.954698     75.909396
     -3.258258     34.087697     34.087697     68.175393
     -3.248248     28.571897     28.571897     57.143794
     -3.238238     22.292638     22.292638     44.585276
     -3.228228     16.158896     16.158896     32.317792
     -3.218218     10.866848     10.866848     21.733696
     -3.208208      6.777675      6.777675     13.555349
     -3.198198      3.931970      3.931970      7.863940
     -3.188188      2.159433      2.159433      4.318867
     -3.178178      1.217009      1.217009      2.434018
     -3.168168      0.902537      0.902537      1.805074
     -3.158158      1.121492      1.121492      2.242983
     -3.148148      1.907684      1.907684      3.815367
     -3.138138      3.405801      3.405801      6.811601
     -3.128128      5.820483      5.820483     11.640965
     -3.118118      9.335317      9.335317     18.670633
     -3.108108     14.013274     14.013274     28.026548
     -3.098098     19.705376     19.705376     39.410753
     -3.088088     26.005427     26.005427     52.010854
     -3.078078     32.282736     32.282736     64.565473
     -3.068068     37.797755     37.797755     75.595510
     -3.058058     41.868111     41.868111     83.736223
     -3.048048     44.026093     44.026093     88.052185
     -3.038038     44.111381     44.111381     88.222762
     -3.028028     42.275439     42.275439     84.550877
     -3.018018     38.916428     38.916428     77.832856
     -3.008008     34.588583     34.588583     69.177165
     -2.997998     29.923348     29.923348     59.846696
     -2.987988     25.571128     25.571128     51.142255
     -2.977978     22.147477     22.147477     44.294954
     -2.967968     20.165705     20.165705     40.331411
     -2.957958     19.957552     19.957552     39.915104
     -2.947948     21.605339     21.605339     43.210678
     -2.937938     24.913584     24.913584     49.827169
     -2.927928     29.432992     29.432992     58.865984
     -2.917918     34.529379     34.529379     69.058757
     -2.907908     39.480582     39.480582     78.961165
     -2.897898     43.588129     43.588129     87.176258
     -2.887888     46.295163     46.295163     92.590325
     -2.877878     47.295457     47.295457     94.590915
     -2.867868     46.602761     46.602761     93.205522
     -2.857858     44.543110     44.543110     89.086220
     -2.847848     41.651775     41.651775     83.303549
     -2.837838     38.498751     38.498751     76.997503
     -2.827828     35.508549     35.508549     71.017098
     -2.817818     32.852195     32.852195     65.704391
     -2.807808     30.459055     30.459055     60.918110
     -2.797798     28.136817     28.136817     56.273634
     -2.787788     25.732557     25.732557     51.465113
     -2.777778     23.248106     23.248106     46.496213
     -2.767768     20.851161     20.851161     41.702322
     -2.757758     18.784427     18.784427     37.568854
     -2.747748     17.234100     17.234100     34.468201
     -2.737738     16.241253     16.241253     32.482507
     -2.727728     15.710962     15.710962     31.421923
     -2.717718     15.510452     15.510452     31.020904
     -2.707708     15.588296     15.588296     31.176592
     -2.697698     16.030409     16.030409     32.060818
     -2.687688     17.008110     17.008110     34.016220
     -2.677678     18.645305     18.645305     37.290611
     -2.667668     20.889571     20.889571     41.779141
     -2.657658     23.475850     23.475850     46.951700
     -2.647648     26.015801     26.015801     52.031602
     -2.637638     28.164844     28.164844     56.329689
     -2.627628     29.766936     29.766936     59.533872
     -2.617618     30.891050     30.891050     61.782100
     -2.607608     31.745120     31.745120     63.490240
     -2.597598     32.531535     32.531535     65.063070
     -2.587588     33.336528     33.336528     66.673057
     -2.577578     34.106677     34.106677     68.213353
     -2.567568     34.696110     34.696110     69.392219
     -2.557558     34.927102     34.927102     69.854203
     -2.547548     34.623832     34.623832     69.247664
     -2.537538     33.628968     33.628968     67.257937
     -2.527528     31.841618     31.841618     63.683236
     -2.517518     29.293041     29.293041     58.586082
     -2.507508     26.224691     26.224691     52.449383
     -2.497497     23.102471     23.102471     46.204943
     -2.487487     20.523979     20.523979     41.047958
     -2.477477     19.038386     19.038386     38.076772
     -2.467467     18.956450     18.956450     37.912900
     -2.457457     20.242313     20.242313     40.484627
     -2.447447     22.541898     22.541898     45.083796
     -2.437437     25.337339     25.337339     50.674677
     -2.427427     28.156925     28.156925     56.313850
     -2.417417     30.743333     30.743333     61.486666
     -2.407407     33.101581     33.101581     66.203162
     -2.397397     35.404394     35.404394     70.808789
     -2.387387     37.801507     37.801507     75.603013
     -2.377377     40.228862     40.228862     80.457724
     -2.367367     42.319336     42.319336     84.638671
     -2.357357     43.473370     43.473370     86.946740
     -2.347347     43.073165     43.073165     86.146331
     -2.337337     40.751720     40.751720     81.503439
     -2.327327     36.595115     36.595115     73.190229
     -2.317317     31.183475     31.183475     62.366949
     -2.307307     25.451255     25.451255     50.902511
     -2.297297     20.429651     20.429651     40.859302
     -2.287287     16.977626     16.977626     33.955253
     -2.277277     15.595046     15.595046     31.190091
     -2.267267     16.360152     16.360152     32.720303
     -2.257257     18.980340     18.980340     37.960680
     -2.247247     22.914463     22.914463     45.828926
     -2.237237     27.518181     27.518181     55.036361
     -2.227227     32.170195     32.170195     64.340390
     -2.217217     36.350012     36.350012     72.700024
     -2.207207     39.658349     39.658349     79.316699
     -2.197197     41.798275     41.798275     83.596550
     -2.187187     42.556090     42.556090     85.112181
     -2.177177     41.818090     41.818090     83.636180
     -2.167167     39.626966     39.626966     79.253932
     -2.157157     36.238171     36.238171     72.476342
     -2.147147     32.115869     32.115869     64.231738
     -2.137137     27.833347     27.833347     55.666695
     -2.127127     23.903201     23.903201     47.806402
     -2.117117     20.616759     20.616759     41.233518
     -2.107107     17.978068     17.978068     35.956136
     -2.097097     15.767024     15.767024     31.534048
     -2.087087     13.692404     13.692404     27.384807
     -2.077077     11.548592     11.548592     23.097183
     -2.067067      9.298363      9.298363     18.596726
     -2.057057      7.056368      7.056368     14.112735
     -2.047047      5.004996      5.004996     10.009991
     -2.037037      3.300885      3.300885      6.601771
     -2.027027      2.018392      2.018392      4.036784
     -2.017017      1.143603      1.143603      2.287206
     -2.007007      0.604085      0.604085      1.208170
     -1.996997      0.309526      0.309526      0.619051
     -1.986987      0.184897      0.184897      0.369793
     -1.976977      0.190076      0.190076      0.380152
     -1.966967      0.328422      0.328422      0.656845
     -1.956957      0.648201      0.648201      1.296402
     -1.946947      1.237049      1.237049      2.474099
     -1.936937      2.205584      2.205584      4.411167
     -1.926927      3.656327      3.656327      7.312653
     -1.916917      5.640438      5.640438     11.280877
     -1.906907      8.114680      8.114680     16.229361
     -1.896897     10.917991     10.917991     21.835983
     -1.886887     13.784001     13.784001     27.568003
     -1.876877     16.391959     16.391959     32.783919
     -1.866867     18.441411     18.441411     36.882822
     -1.856857     19.726102     19.726102     39.452203
     -1.846847     20.184389     20.184389     40.368778
     -1.836837     19.912071     19.912071     39.824142
     -1.826827     19.132074     19.132074     38.264147
     -1.816817     18.123740     18.123740     36.247481
     -1.806807     17.127612     17.127612     34.255225
     -1.796797     16.258715     16.258715     32.517429
     -1.786787     15.469419     15.469419     30.938838
     -1.776777     14.587186     14.587186     29.174371
     -1.766767     13.414541     13.414541     26.829082
     -1.756757     11.841753     11.841753     23.683506
     -1.746747      9.914519      9.914519     19.829038
     -1.736737      7.827328      7.827328     15.654656
     -1.726727      5.857953      5.857953     11.715905
     -1.716717      4.288131      4.288131      8.576263
     -1.706707      3.351874      3.351874      6.703748
     -1.696697      3.222920      3.222920      6.445840
     -1.686687      4.020500      4.020500      8.041000
     -1.676677      5.799898      5.799898     11.599795
     -1.666667      8.509103      8.509103     17.018207
     -1.656657     11.925806     11.925806     23.851613
     -1.646647     15.619188     15.619188     31.238377
     -1.636637     18.986371     18.986371     37.972742
     -1.626627     21.383719     21.383719     42.767439
