# EIG2DOS: Utility for SIESTA to obtain the electronic density of states
#  E. Artacho, Apr 1999, A. Garcia, Apr 2012
#  Nick R. Papior, Feb 2017
# ------------------------------------------
# Eigenvalues calculated from a non-polarized calculation
# Eigenvalues read from siesta.EIG
# Kpoint weights read from siesta.KP
# Using smearing parameter:   0.0500
# Using 1000 points in the energy range
# Selected bands: 1 to: 2981
# Emin, Emax in file for selected band(s):    -27.3525429    218.4006910
# Nbands, Nspin, Nk   =   2981     1     1
# E_F                 =    -4.1936 eV --> (shifted to ZERO)
# Broadening          =     0.0500 eV
#
#        E            N(up)  (=)   N(down)         Ntot
     -5.000000     34.309418     34.309418     68.618836
     -4.989990     39.275035     39.275035     78.550069
     -4.979980     43.521149     43.521149     87.042298
     -4.969970     46.276633     46.276633     92.553266
     -4.959960     47.026710     47.026710     94.053420
     -4.949950     45.686878     45.686878     91.373756
     -4.939940     42.633979     42.633979     85.267959
     -4.929930     38.604232     38.604232     77.208464
     -4.919920     34.521751     34.521751     69.043503
     -4.909910     31.322926     31.322926     62.645852
     -4.899900     29.803603     29.803603     59.607205
     -4.889890     30.480030     30.480030     60.960061
     -4.879880     33.457001     33.457001     66.914003
     -4.869870     38.334938     38.334938     76.669876
     -4.859860     44.221709     44.221709     88.443418
     -4.849850     49.901785     49.901785     99.803570
     -4.839840     54.148145     54.148145    108.296289
     -4.829830     56.079420     56.079420    112.158841
     -4.819820     55.422176     55.422176    110.844352
     -4.809810     52.568129     52.568129    105.136257
     -4.799800     48.404383     48.404383     96.808766
     -4.789790     43.991899     43.991899     87.983799
     -4.779780     40.222867     40.222867     80.445734
     -4.769770     37.580182     37.580182     75.160364
     -4.759760     36.066636     36.066636     72.133273
     -4.749750     35.301070     35.301070     70.602141
     -4.739740     34.722367     34.722367     69.444735
     -4.729730     33.813749     33.813749     67.627498
     -4.719720     32.263666     32.263666     64.527332
     -4.709710     30.014987     30.014987     60.029974
     -4.699700     27.210283     27.210283     54.420566
     -4.689690     24.091455     24.091455     48.182909
     -4.679680     20.926078     20.926078     41.852156
     -4.669670     18.000302     18.000302     36.000605
     -4.659660     15.661224     15.661224     31.322448
     -4.649650     14.349936     14.349936     28.699872
     -4.639640     14.565987     14.565987     29.131973
     -4.629630     16.741507     16.741507     33.483014
     -4.619620     21.055839     21.055839     42.111678
     -4.609610     27.264524     27.264524     54.529047
     -4.599600     34.632270     34.632270     69.264540
     -4.589590     42.036101     42.036101     84.072201
     -4.579580     48.241060     48.241060     96.482119
     -4.569570     52.267255     52.267255    104.534509
     -4.559560     53.706269     53.706269    107.412538
     -4.549550     52.848593     52.848593    105.697186
     -4.539540     50.559463     50.559463    101.118927
     -4.529530     47.951187     47.951187     95.902373
     -4.519520     45.986833     45.986833     91.973666
     -4.509510     45.171084     45.171084     90.342168
     -4.499499     45.436005     45.436005     90.872010
     -4.489489     46.242635     46.242635     92.485271
     -4.479479     46.834717     46.834717     93.669435
     -4.469469     46.531545     46.531545     93.063090
     -4.459459     44.947719     44.947719     89.895439
     -4.449449     42.073103     42.073103     84.146205
     -4.439439     38.213650     38.213650     76.427300
     -4.429429     33.851364     33.851364     67.702728
     -4.419419     29.502371     29.502371     59.004743
     -4.409409     25.628409     25.628409     51.256819
     -4.399399     22.607032     22.607032     45.214064
     -4.389389     20.724598     20.724598     41.449196
     -4.379379     20.152066     20.152066     40.304131
     -4.369369     20.896894     20.896894     41.793789
     -4.359359     22.765448     22.765448     45.530895
     -4.349349     25.383338     25.383338     50.766677
     -4.339339     28.292874     28.292874     56.585747
     -4.329329     31.097019     31.097019     62.194039
     -4.319319     33.584334     33.584334     67.168667
     -4.309309     35.773100     35.773100     71.546201
     -4.299299     37.851203     37.851203     75.702406
     -4.289289     40.036157     40.036157     80.072314
     -4.279279     42.412929     42.412929     84.825859
     -4.269269     44.816370     44.816370     89.632740
     -4.259259     46.812855     46.812855     93.625711
     -4.249249     47.805711     47.805711     95.611423
     -4.239239     47.243299     47.243299     94.486598
     -4.229229     44.857688     44.857688     89.715377
     -4.219219     40.830608     40.830608     81.661215
     -4.209209     35.799005     35.799005     71.598011
     -4.199199     30.679585     30.679585     61.359171
     -4.189189     26.379002     26.379002     52.758004
     -4.179179     23.514175     23.514175     47.028350
     -4.169169     22.261279     22.261279     44.522558
     -4.159159     22.387375     22.387375     44.774750
     -4.149149     23.432813     23.432813     46.865625
     -4.139139     24.948437     24.948437     49.896874
     -4.129129     26.674571     26.674571     53.349142
     -4.119119     28.580895     28.580895     57.161790
     -4.109109     30.753513     30.753513     61.507026
     -4.099099     33.192984     33.192984     66.385967
     -4.089089     35.641476     35.641476     71.282952
     -4.079079     37.555213     37.555213     75.110426
     -4.069069     38.267803     38.267803     76.535605
     -4.059059     37.280621     37.280621     74.561243
     -4.049049     34.532534     34.532534     69.065069
     -4.039039     30.501327     30.501327     61.002655
     -4.029029     26.078684     26.078684     52.157368
     -4.019019     22.282939     22.282939     44.565879
     -4.009009     19.951321     19.951321     39.902642
     -3.998999     19.543731     19.543731     39.087462
     -3.988989     21.111956     21.111956     42.223913
     -3.978979     24.399438     24.399438     48.798877
     -3.968969     28.989722     28.989722     57.979443
     -3.958959     34.431909     34.431909     68.863818
     -3.948949     40.315595     40.315595     80.631189
     -3.938939     46.306778     46.306778     92.613556
     -3.928929     52.164268     52.164268    104.328537
     -3.918919     57.737553     57.737553    115.475106
     -3.908909     62.929899     62.929899    125.859797
     -3.898899     67.619471     67.619471    135.238941
     -3.888889     71.564774     71.564774    143.129548
     -3.878879     74.350669     74.350669    148.701337
     -3.868869     75.427991     75.427991    150.855982
     -3.858859     74.258062     74.258062    148.516124
     -3.848849     70.516636     70.516636    141.033272
     -3.838839     64.274177     64.274177    128.548354
     -3.828829     56.071899     56.071899    112.143799
     -3.818819     46.853100     46.853100     93.706200
     -3.808809     37.765784     37.765784     75.531569
     -3.798799     29.899542     29.899542     59.799084
     -3.788789     24.039266     24.039266     48.078531
     -3.778779     20.507048     20.507048     41.014095
     -3.768769     19.130642     19.130642     38.261284
     -3.758759     19.337511     19.337511     38.675022
     -3.748749     20.341015     20.341015     40.682031
     -3.738739     21.366615     21.366615     42.733231
     -3.728729     21.861426     21.861426     43.722852
     -3.718719     21.637163     21.637163     43.274326
     -3.708709     20.911111     20.911111     41.822221
     -3.698699     20.230665     20.230665     40.461331
     -3.688689     20.293780     20.293780     40.587560
     -3.678679     21.708149     21.708149     43.416297
     -3.668669     24.758987     24.758987     49.517974
     -3.658659     29.265559     29.265559     58.531117
     -3.648649     34.587086     34.587086     69.174172
     -3.638639     39.787331     39.787331     79.574662
     -3.628629     43.902043     43.902043     87.804086
     -3.618619     46.207854     46.207854     92.415708
     -3.608609     46.393545     46.393545     92.787089
     -3.598599     44.585328     44.585328     89.170657
     -3.588589     41.245402     41.245402     82.490803
     -3.578579     37.006413     37.006413     74.012826
     -3.568569     32.505156     32.505156     65.010313
     -3.558559     28.252149     28.252149     56.504297
     -3.548549     24.550167     24.550167     49.100333
     -3.538539     21.469011     21.469011     42.938022
     -3.528529     18.884561     18.884561     37.769121
     -3.518519     16.578578     16.578578     33.157156
     -3.508509     14.369705     14.369705     28.739410
     -3.498498     12.224878     12.224878     24.449755
     -3.488488     10.304309     10.304309     20.608618
     -3.478478      8.922319      8.922319     17.844637
     -3.468468      8.440816      8.440816     16.881632
     -3.458458      9.132548      9.132548     18.265096
     -3.448448     11.054810     11.054810     22.109619
     -3.438438     13.971812     13.971812     27.943624
     -3.428428     17.360737     17.360737     34.721474
     -3.418418     20.523358     20.523358     41.046715
     -3.408408     22.790160     22.790160     45.580320
     -3.398398     23.754262     23.754262     47.508524
     -3.388388     23.438758     23.438758     46.877515
     -3.378378     22.315346     22.315346     44.630692
     -3.368368     21.156005     21.156005     42.312010
     -3.358358     20.776876     20.776876     41.553752
     -3.348348     21.776283     21.776283     43.552567
     -3.338338     24.355320     24.355320     48.710640
     -3.328328     28.259862     28.259862     56.519725
     -3.318318     32.837657     32.837657     65.675314
     -3.308308     37.186753     37.186753     74.373507
     -3.298298     40.370922     40.370922     80.741844
     -3.288288     41.666409     41.666409     83.332818
     -3.278278     40.774784     40.774784     81.549569
     -3.268268     37.916051     37.916051     75.832101
     -3.258258     33.742450     33.742450     67.484901
     -3.248248     29.092072     29.092072     58.184143
     -3.238238     24.688565     24.688565     49.377130
     -3.228228     20.926651     20.926651     41.853301
     -3.218218     17.834203     17.834203     35.668406
     -3.208208     15.201808     15.201808     30.403616
     -3.198198     12.786348     12.786348     25.572695
     -3.188188     10.476615     10.476615     20.953231
     -3.178178      8.356063      8.356063     16.712126
     -3.168168      6.667611      6.667611     13.335221
     -3.158158      5.729570      5.729570     11.459140
     -3.148148      5.850541      5.850541     11.701081
     -3.138138      7.260809      7.260809     14.521617
     -3.128128     10.051349     10.051349     20.102698
     -3.118118     14.111627     14.111627     28.223253
     -3.108108     19.081170     19.081170     38.162341
     -3.098098     24.353343     24.353343     48.706686
     -3.088088     29.166425     29.166425     58.332851
     -3.078078     32.778998     32.778998     65.557996
     -3.068068     34.673128     34.673128     69.346257
     -3.058058     34.696885     34.696885     69.393771
     -3.048048     33.075961     33.075961     66.151922
     -3.038038     30.289072     30.289072     60.578143
     -3.028028     26.875012     26.875012     53.750024
     -3.018018     23.272551     23.272551     46.545102
     -3.008008     19.765700     19.765700     39.531400
     -2.997998     16.537485     16.537485     33.074971
     -2.987988     13.773158     13.773158     27.546317
     -2.977978     11.736296     11.736296     23.472593
     -2.967968     10.770000     10.770000     21.540000
     -2.957958     11.222099     11.222099     22.444198
     -2.947948     13.327529     13.327529     26.655058
     -2.937938     17.092298     17.092298     34.184597
     -2.927928     22.219574     22.219574     44.439148
     -2.917918     28.109155     28.109155     56.218309
     -2.907908     33.947134     33.947134     67.894269
     -2.897898     38.877630     38.877630     77.755260
     -2.887888     42.214495     42.214495     84.428990
     -2.877878     43.622395     43.622395     87.244790
     -2.867868     43.193667     43.193667     86.387333
     -2.857858     41.381117     41.381117     82.762234
     -2.847848     38.807842     38.807842     77.615684
     -2.837838     36.034073     36.034073     72.068145
     -2.827828     33.384290     33.384290     66.768580
     -2.817818     30.908262     30.908262     61.816523
     -2.807808     28.480200     28.480200     56.960400
     -2.797798     25.968828     25.968828     51.937656
     -2.787788     23.378531     23.378531     46.757063
     -2.777778     20.886237     20.886237     41.772473
     -2.767768     18.764595     18.764595     37.529190
     -2.757758     17.249505     17.249505     34.499011
     -2.747748     16.438662     16.438662     32.877324
     -2.737738     16.281077     16.281077     32.562153
     -2.727728     16.653187     16.653187     33.306374
     -2.717718     17.457565     17.457565     34.915130
     -2.707708     18.666493     18.666493     37.332985
     -2.697698     20.276216     20.276216     40.552431
     -2.687688     22.209419     22.209419     44.418838
     -2.677678     24.250680     24.250680     48.501360
     -2.667668     26.083765     26.083765     52.167529
     -2.657658     27.427354     27.427354     54.854708
     -2.647648     28.188400     28.188400     56.376799
     -2.637638     28.528917     28.528917     57.057833
     -2.627628     28.793505     28.793505     57.587010
     -2.617618     29.335336     29.335336     58.670671
     -2.607608     30.341822     30.341822     60.683643
     -2.597598     31.753294     31.753294     63.506588
     -2.587588     33.300102     33.300102     66.600204
     -2.577578     34.611207     34.611207     69.222415
     -2.567568     35.323153     35.323153     70.646306
     -2.557558     35.149924     35.149924     70.299848
     -2.547548     33.923385     33.923385     67.846770
     -2.537538     31.633904     31.633904     63.267809
     -2.527528     28.478027     28.478027     56.956053
     -2.517518     24.882232     24.882232     49.764464
     -2.507508     21.458743     21.458743     42.917487
     -2.497497     18.876606     18.876606     37.753213
     -2.487487     17.679917     17.679917     35.359835
     -2.477477     18.121349     18.121349     36.242698
     -2.467467     20.081103     20.081103     40.162206
     -2.457457     23.109805     23.109805     46.219610
     -2.447447     26.584664     26.584664     53.169327
     -2.437437     29.921540     29.921540     59.843081
     -2.427427     32.759262     32.759262     65.518525
     -2.417417     35.038656     35.038656     70.077313
     -2.407407     36.939100     36.939100     73.878201
     -2.397397     38.697335     38.697335     77.394671
     -2.387387     40.391928     40.391928     80.783855
     -2.377377     41.803309     41.803309     83.606619
     -2.367367     42.433900     42.433900     84.867800
     -2.357357     41.698348     41.698348     83.396697
     -2.347347     39.203273     39.203273     78.406546
     -2.337337     34.980530     34.980530     69.961060
     -2.327327     29.556350     29.556350     59.112699
     -2.317317     23.823940     23.823940     47.647881
     -2.307307     18.786594     18.786594     37.573188
     -2.297297     15.290550     15.290550     30.581100
     -2.287287     13.847569     13.847569     27.695139
     -2.277277     14.582570     14.582570     29.165139
     -2.267267     17.280704     17.280704     34.561409
     -2.257257     21.482871     21.482871     42.965741
     -2.247247     26.587467     26.587467     53.174935
     -2.237237     31.938028     31.938028     63.876057
     -2.227227     36.893003     36.893003     73.786005
     -2.217217     40.881143     40.881143     81.762287
     -2.207207     43.448285     43.448285     86.896571
     -2.197197     44.301833     44.301833     88.603666
     -2.187187     43.355433     43.355433     86.710866
     -2.177177     40.764605     40.764605     81.529210
     -2.167167     36.928969     36.928969     73.857938
     -2.157157     32.432709     32.432709     64.865418
     -2.147147     27.915575     27.915575     55.831149
     -2.137137     23.908009     23.908009     47.816017
     -2.127127     20.699112     20.699112     41.398225
     -2.117117     18.303529     18.303529     36.607058
     -2.107107     16.544706     16.544706     33.089412
     -2.097097     15.205147     15.205147     30.410294
     -2.087087     14.154891     14.154891     28.309782
     -2.077077     13.386453     13.386453     26.772905
     -2.067067     12.947165     12.947165     25.894329
     -2.057057     12.825884     12.825884     25.651768
     -2.047047     12.876978     12.876978     25.753956
     -2.037037     12.835833     12.835833     25.671666
     -2.027027     12.418837     12.418837     24.837674
     -2.017017     11.448348     11.448348     22.896696
     -2.007007      9.931855      9.931855     19.863710
     -1.996997      8.057289      8.057289     16.114577
     -1.986987      6.117548      6.117548     12.235096
     -1.976977      4.412760      4.412760      8.825521
     -1.966967      3.179567      3.179567      6.359135
     -1.956957      2.569018      2.569018      5.138036
     -1.946947      2.661087      2.661087      5.322174
     -1.936937      3.485898      3.485898      6.971795
     -1.926927      5.026956      5.026956     10.053911
     -1.916917      7.202533      7.202533     14.405065
     -1.906907      9.842278      9.842278     19.684557
     -1.896897     12.683770     12.683770     25.367540
     -1.886887     15.403958     15.403958     30.807917
     -1.876877     17.680922     17.680922     35.361844
     -1.866867     19.265352     19.265352     38.530704
     -1.856857     20.037692     20.037692     40.075384
     -1.846847     20.033757     20.033757     40.067514
     -1.836837     19.430676     19.430676     38.861351
     -1.826827     18.492180     18.492180     36.984360
     -1.816817     17.482127     17.482127     34.964254
     -1.806807     16.571187     16.571187     33.142374
     -1.796797     15.775823     15.775823     31.551646
     -1.786787     14.964412     14.964412     29.928823
     -1.776777     13.935245     13.935245     27.870491
     -1.766767     12.530177     12.530177     25.060354
     -1.756757     10.724914     10.724914     21.449828
     -1.746747      8.650915      8.650915     17.301829
     -1.736737      6.545511      6.545511     13.091022
     -1.726727      4.666745      4.666745      9.333490
     -1.716717      3.221496      3.221496      6.442993
     -1.706707      2.336373      2.336373      4.672745
     -1.696697      2.068182      2.068182      4.136364
     -1.686687      2.427334      2.427334      4.854667
     -1.676677      3.385689      3.385689      6.771377
     -1.666667      4.858049      4.858049      9.716099
     -1.656657      6.671379      6.671379     13.342759
     -1.646647      8.552781      8.552781     17.105561
     -1.636637     10.164727     10.164727     20.329455
     -1.626627     11.192737     11.192737     22.385474
