# EIG2DOS: Utility for SIESTA to obtain the electronic density of states
#  E. Artacho, Apr 1999, A. Garcia, Apr 2012
#  Nick R. Papior, Feb 2017
# ------------------------------------------
# Eigenvalues calculated from a non-polarized calculation
# Eigenvalues read from siesta.EIG
# Kpoint weights read from siesta.KP
# Using smearing parameter:   0.0500
# Using 1000 points in the energy range
# Selected bands: 1 to: 2981
# Emin, Emax in file for selected band(s):    -27.3064488    218.4114990
# Nbands, Nspin, Nk   =   2981     1     1
# E_F                 =    -4.1852 eV --> (shifted to ZERO)
# Broadening          =     0.0500 eV
#
#        E            N(up)  (=)   N(down)         Ntot
     -5.000000     32.392315     32.392315     64.784630
     -4.989990     37.663867     37.663867     75.327734
     -4.979980     42.520786     42.520786     85.041571
     -4.969970     46.087507     46.087507     92.175014
     -4.959960     47.675606     47.675606     95.351213
     -4.949950     47.016113     47.016113     94.032226
     -4.939940     44.351879     44.351879     88.703758
     -4.929930     40.370746     40.370746     80.741492
     -4.919920     36.031274     36.031274     72.062548
     -4.909910     32.356974     32.356974     64.713947
     -4.899900     30.248488     30.248488     60.496977
     -4.889890     30.322337     30.322337     60.644675
     -4.879880     32.772290     32.772290     65.544579
     -4.869870     37.275202     37.275202     74.550403
     -4.859860     42.995512     42.995512     85.991024
     -4.849850     48.737875     48.737875     97.475750
     -4.839840     53.240936     53.240936    106.481871
     -4.829830     55.527391     55.527391    111.054781
     -4.819820     55.179454     55.179454    110.358908
     -4.809810     52.430212     52.430212    104.860423
     -4.799800     48.041536     48.041536     96.083071
     -4.789790     43.032075     43.032075     86.064151
     -4.779780     38.372489     38.372489     76.744978
     -4.769770     34.755629     34.755629     69.511258
     -4.759760     32.493317     32.493317     64.986633
     -4.749750     31.529375     31.529375     63.058751
     -4.739740     31.525068     31.525068     63.050137
     -4.729730     31.974150     31.974150     63.948300
     -4.719720     32.322445     32.322445     64.644890
     -4.709710     32.080177     32.080177     64.160353
     -4.699700     30.917653     30.917653     61.835306
     -4.689690     28.733199     28.733199     57.466398
     -4.679680     25.684005     25.684005     51.368010
     -4.669670     22.176295     22.176295     44.352590
     -4.659660     18.816268     18.816268     37.632536
     -4.649650     16.324693     16.324693     32.649387
     -4.639640     15.417338     15.417338     30.834675
     -4.629630     16.655843     16.655843     33.311687
     -4.619620     20.285214     20.285214     40.570427
     -4.609610     26.096051     26.096051     52.192102
     -4.599600     33.371689     33.371689     66.743379
     -4.589590     40.980208     40.980208     81.960416
     -4.579580     47.629973     47.629973     95.259946
     -4.569570     52.231268     52.231268    104.462535
     -4.559560     54.235185     54.235185    108.470371
     -4.549550     53.804334     53.804334    107.608668
     -4.539540     51.730365     51.730365    103.460730
     -4.529530     49.124048     49.124048     98.248097
     -4.519520     47.004947     47.004947     94.009894
     -4.509510     45.956982     45.956982     91.913964
     -4.499499     45.978340     45.978340     91.956681
     -4.489489     46.564155     46.564155     93.128309
     -4.479479     46.963449     46.963449     93.926898
     -4.469469     46.489647     46.489647     92.979294
     -4.459459     44.758627     44.758627     89.517254
     -4.449449     41.776297     41.776297     83.552595
     -4.439439     37.873062     37.873062     75.746124
     -4.429429     33.548479     33.548479     67.096958
     -4.419419     29.314833     29.314833     58.629666
     -4.409409     25.603878     25.603878     51.207756
     -4.399399     22.745543     22.745543     45.491086
     -4.389389     20.978761     20.978761     41.957522
     -4.379379     20.445105     20.445105     40.890211
     -4.369369     21.149093     21.149093     42.298186
     -4.359359     22.915706     22.915706     45.831411
     -4.349349     25.396686     25.396686     50.793372
     -4.339339     28.154189     28.154189     56.308378
     -4.329329     30.799979     30.799979     61.599959
     -4.319319     33.127169     33.127169     66.254337
     -4.309309     35.167327     35.167327     70.334653
     -4.299299     37.139205     37.139205     74.278409
     -4.289289     39.304649     39.304649     78.609297
     -4.279279     41.788126     41.788126     83.576251
     -4.269269     44.435136     44.435136     88.870273
     -4.259259     46.778079     46.778079     93.556159
     -4.249249     48.145113     48.145113     96.290226
     -4.239239     47.891567     47.891567     95.783133
     -4.229229     45.671246     45.671246     91.342492
     -4.219219     41.628926     41.628926     83.257852
     -4.209209     36.415274     36.415274     72.830549
     -4.199199     31.002241     31.002241     62.004483
     -4.189189     26.372665     26.372665     52.745329
     -4.179179     23.218133     23.218133     46.436266
     -4.169169     21.770369     21.770369     43.540738
     -4.159159     21.822467     21.822467     43.644933
     -4.149149     22.908121     22.908121     45.816243
     -4.139139     24.542984     24.542984     49.085968
     -4.129129     26.415579     26.415579     52.831157
     -4.119119     28.445631     28.445631     56.891263
     -4.109109     30.690774     30.690774     61.381548
     -4.099099     33.156385     33.156385     66.312771
     -4.089089     35.618631     35.618631     71.237263
     -4.079079     37.576062     37.576062     75.152123
     -4.069069     38.385160     38.385160     76.770320
     -4.059059     37.532181     37.532181     75.064362
     -4.049049     34.906005     34.906005     69.812010
     -4.039039     30.924088     30.924088     61.848175
     -4.029029     26.439706     26.439706     52.879411
     -4.019019     22.476338     22.476338     44.952677
     -4.009009     19.919259     19.919259     39.838518
     -3.998999     19.297814     19.297814     38.595628
     -3.988989     20.724665     20.724665     41.449329
     -3.978979     23.972338     23.972338     47.944677
     -3.968969     28.614985     28.614985     57.229969
     -3.958959     34.163778     34.163778     68.327556
     -3.948949     40.160752     40.160752     80.321505
     -3.938939     46.232778     46.232778     92.465557
     -3.928929     52.118966     52.118966    104.237933
     -3.918919     57.671562     57.671562    115.343125
     -3.908909     62.816080     62.816080    125.632161
     -3.898899     67.465121     67.465121    134.930242
     -3.888889     71.412926     71.412926    142.825851
     -3.878879     74.268738     74.268738    148.537476
     -3.868869     75.486246     75.486246    150.972492
     -3.858859     74.505241     74.505241    149.010482
     -3.848849     70.961948     70.961948    141.923896
     -3.838839     64.882033     64.882033    129.764067
     -3.828829     56.769979     56.769979    113.539958
     -3.818819     47.549522     47.549522     95.099045
     -3.808809     38.369617     38.369617     76.739235
     -3.798799     30.339912     30.339912     60.679824
     -3.788789     24.279835     24.279835     48.559670
     -3.778779     20.553276     20.553276     41.106552
     -3.768769     19.027665     19.027665     38.055331
     -3.758759     19.157909     19.157909     38.315817
     -3.748749     20.164527     20.164527     40.329054
     -3.738739     21.256961     21.256961     42.513922
     -3.728729     21.847145     21.847145     43.694289
     -3.718719     21.702817     21.702817     43.405634
     -3.708709     21.002437     21.002437     42.004873
     -3.698699     20.273083     20.273083     40.546166
     -3.688689     20.219144     20.219144     40.438288
     -3.678679     21.480966     21.480966     42.961931
     -3.668669     24.392143     24.392143     48.784286
     -3.658659     28.818528     28.818528     57.637055
     -3.648649     34.146537     34.146537     68.293074
     -3.638639     39.438285     39.438285     78.876569
     -3.628629     43.702405     43.702405     87.404810
     -3.618619     46.176875     46.176875     92.353749
     -3.608609     46.516511     46.516511     93.033021
     -3.598599     44.828051     44.828051     89.656102
     -3.588589     41.568663     41.568663     83.137326
     -3.578579     37.374071     37.374071     74.748142
     -3.568569     32.886243     32.886243     65.772487
     -3.558559     28.621315     28.621315     57.242630
     -3.548549     24.889502     24.889502     49.779004
     -3.538539     21.769828     21.769828     43.539656
     -3.528529     19.144674     19.144674     38.289349
     -3.518519     16.791653     16.791653     33.583305
     -3.508509     14.507226     14.507226     29.014452
     -3.498498     12.215373     12.215373     24.430745
     -3.488488     10.017089     10.017089     20.034178
     -3.478478      8.165137      8.165137     16.330274
     -3.468468      6.982964      6.982964     13.965927
     -3.458458      6.763716      6.763716     13.527432
     -3.448448      7.679384      7.679384     15.358769
     -3.438438      9.715655      9.715655     19.431309
     -3.428428     12.642036     12.642036     25.284072
     -3.418418     16.030969     16.030969     32.061939
     -3.408408     19.339914     19.339914     38.679829
     -3.398398     22.052661     22.052661     44.105322
     -3.388388     23.843259     23.843259     47.686517
     -3.378378     24.699299     24.699299     49.398597
     -3.368368     24.944419     24.944419     49.888837
     -3.358358     25.137805     25.137805     50.275611
     -3.348348     25.881136     25.881136     51.762273
     -3.338338     27.600614     27.600614     55.201228
     -3.328328     30.376667     30.376667     60.753334
     -3.318318     33.873449     33.873449     67.746897
     -3.308308     37.392502     37.392502     74.785003
     -3.298298     40.048056     40.048056     80.096112
     -3.288288     41.029068     41.029068     82.058135
     -3.278278     39.872970     39.872970     79.745939
     -3.268268     36.647677     36.647677     73.295355
     -3.258258     31.953517     31.953517     63.907034
     -3.248248     26.726489     26.726489     53.452978
     -3.238238     21.917675     21.917675     43.835350
     -3.228228     18.184936     18.184936     36.369872
     -3.218218     15.724323     15.724323     31.448646
     -3.208208     14.297127     14.297127     28.594255
     -3.198198     13.417863     13.417863     26.835726
     -3.188188     12.606033     12.606033     25.212065
     -3.178178     11.594582     11.594582     23.189164
     -3.168168     10.424698     10.424698     20.849395
     -3.158158      9.413800      9.413800     18.827601
     -3.148148      9.030962      9.030962     18.061925
     -3.138138      9.733300      9.733300     19.466599
     -3.128128     11.810478     11.810478     23.620956
     -3.118118     15.269492     15.269492     30.538983
     -3.108108     19.783456     19.783456     39.566912
     -3.098098     24.725458     24.725458     49.450916
     -3.088088     29.296852     29.296852     58.593704
     -3.078078     32.728226     32.728226     65.456451
     -3.068068     34.490599     34.490599     68.981197
     -3.058058     34.432768     34.432768     68.865537
     -3.048048     32.783106     32.783106     65.566212
     -3.038038     30.017491     30.017491     60.034982
     -3.028028     26.664004     26.664004     53.328009
     -3.018018     23.144638     23.144638     46.289277
     -3.008008     19.724230     19.724230     39.448460
     -2.997998     16.567970     16.567970     33.135939
     -2.987988     13.847627     13.847627     27.695253
     -2.977978     11.819579     11.819579     23.639158
     -2.967968     10.826602     10.826602     21.653203
     -2.957958     11.222357     11.222357     22.444714
     -2.947948     13.252336     13.252336     26.504673
     -2.937938     16.936414     16.936414     33.872828
     -2.927928     21.993788     21.993788     43.987576
     -2.917918     27.840996     27.840996     55.681992
     -2.907908     33.678951     33.678951     67.357902
     -2.897898     38.660685     38.660685     77.321370
     -2.887888     42.098830     42.098830     84.197661
     -2.877878     43.644336     43.644336     87.288672
     -2.867868     43.364760     43.364760     86.729519
     -2.857858     41.682748     41.682748     83.365496
     -2.847848     39.194110     39.194110     78.388219
     -2.837838     36.442337     36.442337     72.884673
     -2.827828     33.749740     33.749740     67.499480
     -2.817818     31.177495     31.177495     62.354989
     -2.807808     28.619811     28.619811     57.239622
     -2.797798     25.967731     25.967731     51.935462
     -2.787788     23.245428     23.245428     46.490856
     -2.777778     20.644802     20.644802     41.289604
     -2.767768     18.448077     18.448077     36.896155
     -2.757758     16.894627     16.894627     33.789255
     -2.747748     16.077889     16.077889     32.155778
     -2.737738     15.933832     15.933832     31.867664
     -2.727728     16.319610     16.319610     32.639220
     -2.717718     17.120123     17.120123     34.240247
     -2.707708     18.302261     18.302261     36.604521
     -2.697698     19.876014     19.876014     39.752028
     -2.687688     21.793301     21.793301     43.586603
     -2.677678     23.868243     23.868243     47.736486
     -2.667668     25.795127     25.795127     51.590253
     -2.657658     27.272850     27.272850     54.545700
     -2.647648     28.163849     28.163849     56.327699
     -2.637638     28.581841     28.581841     57.163682
     -2.627628     28.843921     28.843921     57.687842
     -2.617618     29.310403     29.310403     58.620806
     -2.607608     30.206260     30.206260     60.412520
     -2.597598     31.521548     31.521548     63.043095
     -2.587588     33.027841     33.027841     66.055681
     -2.577578     34.374246     34.374246     68.748492
     -2.567568     35.194803     35.194803     70.389606
     -2.557558     35.183435     35.183435     70.366869
     -2.547548     34.140118     34.140118     68.280236
     -2.537538     32.015719     32.015719     64.031439
     -2.527528     28.964693     28.964693     57.929385
     -2.517518     25.377696     25.377696     50.755391
     -2.507508     21.849511     21.849511     43.699023
     -2.497497     19.060652     19.060652     38.121304
     -2.487487     17.598375     17.598375     35.196750
     -2.477477     17.781705     17.781705     35.563411
     -2.467467     19.561912     19.561912     39.123823
     -2.457457     22.542893     22.542893     45.085785
     -2.447447     26.119246     26.119246     52.238493
     -2.437437     29.682167     29.682167     59.364333
     -2.427427     32.812385     32.812385     65.624770
     -2.417417     35.379115     35.379115     70.758230
     -2.407407     37.499461     37.499461     74.998923
     -2.397397     39.374259     39.374259     78.748518
     -2.387387     41.078629     41.078629     82.157257
     -2.377377     42.417114     42.417114     84.834227
     -2.367367     42.931462     42.931462     85.862924
     -2.357357     42.076163     42.076163     84.152325
     -2.347347     39.486113     39.486113     78.972226
     -2.337337     35.204163     35.204163     70.408326
     -2.327327     29.751940     29.751940     59.503880
     -2.317317     24.009317     24.009317     48.018634
     -2.307307     18.965208     18.965208     37.930415
     -2.297297     15.455183     15.455183     30.910365
     -2.287287     13.984941     13.984941     27.969883
     -2.277277     14.676859     14.676859     29.353717
     -2.267267     17.316482     17.316482     34.632965
     -2.257257     21.448848     21.448848     42.897695
     -2.247247     26.481171     26.481171     52.962343
     -2.237237     31.769609     31.769609     63.539218
     -2.227227     36.685615     36.685615     73.371230
     -2.217217     40.666606     40.666606     81.333213
     -2.207207     43.259020     43.259020     86.518040
     -2.197197     44.161942     44.161942     88.323884
     -2.187187     43.274280     43.274280     86.548560
     -2.177177     40.735567     40.735567     81.471135
     -2.167167     36.934757     36.934757     73.869514
     -2.157157     32.457029     32.457029     64.914057
     -2.147147     27.958900     27.958900     55.917800
     -2.137137     24.003042     24.003042     48.006084
     -2.127127     20.919807     20.919807     41.839613
     -2.117117     18.761132     18.761132     37.522264
     -2.107107     17.365820     17.365820     34.731640
     -2.097097     16.490969     16.490969     32.981939
     -2.087087     15.928359     15.928359     31.856718
     -2.077077     15.544088     15.544088     31.088177
     -2.067067     15.240255     15.240255     30.480511
     -2.057057     14.893113     14.893113     29.786227
     -2.047047     14.332300     14.332300     28.664600
     -2.037037     13.386292     13.386292     26.772585
     -2.027027     11.964076     11.964076     23.928152
     -2.017017     10.114869     10.114869     20.229738
     -2.007007      8.024571      8.024571     16.049142
     -1.996997      5.951881      5.951881     11.903763
     -1.986987      4.143882      4.143882      8.287764
     -1.976977      2.776714      2.776714      5.553427
     -1.966967      1.944032      1.944032      3.888064
     -1.956957      1.684487      1.684487      3.368973
     -1.946947      2.019700      2.019700      4.039399
     -1.936937      2.973968      2.973968      5.947936
     -1.926927      4.561809      4.561809      9.123619
     -1.916917      6.749789      6.749789     13.499577
     -1.906907      9.414959      9.414959     18.829919
     -1.896897     12.326552     12.326552     24.653105
     -1.886887     15.167880     15.167880     30.335761
     -1.876877     17.596753     17.596753     35.193507
     -1.866867     19.325266     19.325266     38.650532
     -1.856857     20.192408     20.192408     40.384816
     -1.846847     20.206326     20.206326     40.412652
     -1.836837     19.541571     19.541571     39.083142
     -1.826827     18.486509     18.486509     36.973018
     -1.816817     17.349486     17.349486     34.698971
     -1.806807     16.351119     16.351119     32.702238
     -1.796797     15.546119     15.546119     31.092239
     -1.786787     14.815181     14.815181     29.630363
     -1.776777     13.937669     13.937669     27.875339
     -1.766767     12.712205     12.712205     25.424410
     -1.756757     11.063919     11.063919     22.127837
     -1.746747      9.085547      9.085547     18.171094
     -1.736737      6.999875      6.999875     13.999751
     -1.726727      5.075042      5.075042     10.150083
     -1.716717      3.543155      3.543155      7.086310
     -1.706707      2.558359      2.558359      5.116717
     -1.696697      2.197849      2.197849      4.395698
     -1.686687      2.482270      2.482270      4.964540
     -1.676677      3.385879      3.385879      6.771757
     -1.666667      4.822338      4.822338      9.644676
     -1.656657      6.617169      6.617169     13.234337
     -1.646647      8.496531      8.496531     16.993063
     -1.636637     10.121348     10.121348     20.242696
     -1.626627     11.173503     11.173503     22.347006
