# EIG2DOS: Utility for SIESTA to obtain the electronic density of states
#  E. Artacho, Apr 1999, A. Garcia, Apr 2012
#  Nick R. Papior, Feb 2017
# ------------------------------------------
# Eigenvalues calculated from a non-polarized calculation
# Eigenvalues read from siesta.EIG
# Kpoint weights read from siesta.KP
# Using smearing parameter:   0.0500
# Using 1000 points in the energy range
# Selected bands: 1 to: 2981
# Emin, Emax in file for selected band(s):    -27.2825168    218.4045810
# Nbands, Nspin, Nk   =   2981     1     1
# E_F                 =    -4.1874 eV --> (shifted to ZERO)
# Broadening          =     0.0500 eV
#
#        E            N(up)  (=)   N(down)         Ntot
     -5.000000     31.310342     31.310342     62.620685
     -4.989990     36.686202     36.686202     73.372405
     -4.979980     41.829293     41.829293     83.658586
     -4.969970     45.825382     45.825382     91.650764
     -4.959960     47.897773     47.897773     95.795545
     -4.949950     47.668319     47.668319     95.336637
     -4.939940     45.288161     45.288161     90.576323
     -4.929930     41.400098     41.400098     82.800196
     -4.919920     36.971644     36.971644     73.943288
     -4.909910     33.075364     33.075364     66.150729
     -4.899900     30.677405     30.677405     61.354811
     -4.889890     30.455968     30.455968     60.911937
     -4.879880     32.652395     32.652395     65.304791
     -4.869870     36.975068     36.975068     73.950136
     -4.859860     42.604824     42.604824     85.209648
     -4.849850     48.347499     48.347499     96.694997
     -4.839840     52.926612     52.926612    105.853224
     -4.829830     55.333616     55.333616    110.667231
     -4.819820     55.106300     55.106300    110.212600
     -4.809810     52.424997     52.424997    104.849994
     -4.799800     47.995337     47.995337     95.990674
     -4.789790     42.781011     42.781011     85.562023
     -4.779780     37.707432     37.707432     75.414863
     -4.769770     33.449679     33.449679     66.899357
     -4.759760     30.357733     30.357733     60.715465
     -4.749750     28.498524     28.498524     56.997048
     -4.739740     27.748383     27.748383     55.496767
     -4.729730     27.869402     27.869402     55.738804
     -4.719720     28.539986     28.539986     57.079972
     -4.709710     29.357280     29.357280     58.714561
     -4.699700     29.858457     29.858457     59.716915
     -4.689690     29.601024     29.601024     59.202048
     -4.679680     28.301658     28.301658     56.603317
     -4.669670     25.983325     25.983325     51.966649
     -4.659660     23.055765     23.055765     46.111531
     -4.649650     20.273581     20.273581     40.547161
     -4.639640     18.566864     18.566864     37.133728
     -4.629630     18.789575     18.789575     37.579150
     -4.619620     21.456792     21.456792     42.913585
     -4.609610     26.544504     26.544504     53.089008
     -4.599600     33.417086     33.417086     66.834171
     -4.589590     40.929082     40.929082     81.858163
     -4.579580     47.705893     47.705893     95.411786
     -4.569570     52.538777     52.538777    105.077554
     -4.559560     54.760894     54.760894    109.521787
     -4.549550     54.451178     54.451178    108.902355
     -4.539540     52.370554     52.370554    104.741107
     -4.529530     49.649727     49.649727     99.299454
     -4.519520     47.358689     47.358689     94.717378
     -4.509510     46.135573     46.135573     92.271146
     -4.499499     46.015951     46.015951     92.031903
     -4.489489     46.508073     46.508073     93.016146
     -4.479479     46.854739     46.854739     93.709478
     -4.469469     46.355069     46.355069     92.710138
     -4.459459     44.613225     44.613225     89.226451
     -4.449449     41.631528     41.631528     83.263055
     -4.439439     37.744179     37.744179     75.488357
     -4.429429     33.456588     33.456588     66.913175
     -4.419419     29.282418     29.282418     58.564835
     -4.409409     25.646274     25.646274     51.292548
     -4.399399     22.863184     22.863184     45.726368
     -4.389389     21.154673     21.154673     42.309346
     -4.379379     20.649114     20.649114     41.298227
     -4.369369     21.346307     21.346307     42.692615
     -4.359359     23.074680     23.074680     46.149360
     -4.349349     25.493631     25.493631     50.987261
     -4.339339     28.172899     28.172899     56.345798
     -4.329329     30.730205     30.730205     61.460411
     -4.319319     32.964902     32.964902     65.929803
     -4.309309     34.918521     34.918521     69.837043
     -4.299299     36.825255     36.825255     73.650510
     -4.289289     38.965536     38.965536     77.931072
     -4.279279     41.479106     41.479106     82.958211
     -4.269269     44.215452     44.215452     88.430904
     -4.259259     46.694325     46.694325     93.388649
     -4.249249     48.215410     48.215410     96.430821
     -4.239239     48.097406     48.097406     96.194812
     -4.229229     45.960978     45.960978     91.921955
     -4.219219     41.931863     41.931863     83.863727
     -4.209209     36.660994     36.660994     73.321989
     -4.199199     31.138237     31.138237     62.276474
     -4.189189     26.375298     26.375298     52.750596
     -4.179179     23.095138     23.095138     46.190276
     -4.169169     21.555933     21.555933     43.111867
     -4.159159     21.567151     21.567151     43.134303
     -4.149149     22.666074     22.666074     45.332148
     -4.139139     24.359010     24.359010     48.718019
     -4.129129     26.315083     26.315083     52.630166
     -4.119119     28.430599     28.430599     56.861199
     -4.109109     30.743652     30.743652     61.487305
     -4.099099     33.250675     33.250675     66.501349
     -4.089089     35.731376     35.731376     71.462752
     -4.079079     37.695787     37.695787     75.391574
     -4.069069     38.510930     38.510930     77.021859
     -4.059059     37.664725     37.664725     75.329450
     -4.049049     35.037015     35.037015     70.074031
     -4.039039     31.031267     31.031267     62.062535
     -4.029029     26.491787     26.491787     52.983573
     -4.019019     22.446213     22.446213     44.892426
     -4.009009     19.798344     19.798344     39.596688
     -3.998999     19.103719     19.103719     38.207438
     -3.988989     20.497540     20.497540     40.995079
     -3.978979     23.761037     23.761037     47.522073
     -3.968969     28.459217     28.459217     56.918433
     -3.958959     34.080227     34.080227     68.160454
     -3.948949     40.138853     40.138853     80.277707
     -3.938939     46.241161     46.241161     92.482321
     -3.928929     52.119168     52.119168    104.238335
     -3.918919     57.633534     57.633534    115.267067
     -3.908909     62.730314     62.730314    125.460628
     -3.898899     67.347758     67.347758    134.695517
     -3.888889     71.302098     71.302098    142.604196
     -3.878879     74.212787     74.212787    148.425575
     -3.868869     75.527387     75.527387    151.054775
     -3.858859     74.664591     74.664591    149.329183
     -3.848849     71.231856     71.231856    142.463711
     -3.838839     65.228573     65.228573    130.457145
     -3.828829     57.143834     57.143834    114.287668
     -3.818819     47.900070     47.900070     95.800139
     -3.808809     38.656716     38.656716     77.313432
     -3.798799     30.540348     30.540348     61.080697
     -3.788789     24.388418     24.388418     48.776837
     -3.778779     20.580353     20.580353     41.160706
     -3.768769     18.994837     18.994837     37.989675
     -3.758759     19.092871     19.092871     38.185741
     -3.748749     20.095337     20.095337     40.190673
     -3.738739     21.206152     21.206152     42.412305
     -3.728729     21.826696     21.826696     43.653391
     -3.718719     21.711421     21.711421     43.422842
     -3.708709     21.026372     21.026372     42.052745
     -3.698699     20.291062     20.291062     40.582124
     -3.688689     20.210021     20.210021     40.420041
     -3.678679     21.431725     21.431725     42.863450
     -3.668669     24.302948     24.302948     48.605897
     -3.658659     28.702492     28.702492     57.404984
     -3.648649     34.024263     34.024263     68.048527
     -3.638639     39.329940     39.329940     78.659880
     -3.628629     43.621440     43.621440     87.242880
     -3.618619     46.128349     46.128349     92.256697
     -3.608609     46.499930     46.499930     92.999860
     -3.598599     44.841791     44.841791     89.683581
     -3.588589     41.612454     41.612454     83.224909
     -3.578579     37.448079     37.448079     74.896158
     -3.568569     32.988163     32.988163     65.976326
     -3.558559     28.744388     28.744388     57.488775
     -3.548549     25.023345     25.023345     50.046690
     -3.538539     21.903496     21.903496     43.806992
     -3.528529     19.269512     19.269512     38.539023
     -3.518519     16.901463     16.901463     33.802926
     -3.508509     14.594707     14.594707     29.189415
     -3.498498     12.265061     12.265061     24.530123
     -3.488488      9.995256      9.995256     19.990512
     -3.478478      8.006752      8.006752     16.013503
     -3.468468      6.576820      6.576820     13.153640
     -3.458458      5.940716      5.940716     11.881431
     -3.448448      6.215164      6.215164     12.430328
     -3.438438      7.363212      7.363212     14.726424
     -3.428428      9.206083      9.206083     18.412166
     -3.418418     11.478322     11.478322     22.956644
     -3.408408     13.911950     13.911950     27.823899
     -3.398398     16.321417     16.321417     32.642834
     -3.388388     18.653661     18.653661     37.307322
     -3.378378     20.979694     20.979694     41.959388
     -3.368368     23.434719     23.434719     46.869438
     -3.358358     26.141910     26.141910     52.283819
     -3.348348     29.156720     29.156720     58.313440
     -3.338338     32.441563     32.441563     64.883126
     -3.328328     35.851006     35.851006     71.702011
     -3.318318     39.107309     39.107309     78.214617
     -3.308308     41.779733     41.779733     83.559467
     -3.298298     43.315620     43.315620     86.631239
     -3.288288     43.163928     43.163928     86.327856
     -3.278278     40.973419     40.973419     81.946838
     -3.268268     36.778720     36.778720     73.557440
     -3.258258     31.067816     31.067816     62.135631
     -3.248248     24.678790     24.678790     49.357579
     -3.238238     18.566585     18.566585     37.133170
     -3.228228     13.545755     13.545755     27.091509
     -3.218218     10.111484     10.111484     20.222967
     -3.208208      8.383163      8.383163     16.766326
     -3.198198      8.152882      8.152882     16.305764
     -3.188188      8.994724      8.994724     17.989449
     -3.178178     10.399738     10.399738     20.799476
     -3.168168     11.917325     11.917325     23.834649
     -3.158158     13.282465     13.282465     26.564929
     -3.148148     14.492723     14.492723     28.985445
     -3.138138     15.793509     15.793509     31.587019
     -3.128128     17.554874     17.554874     35.109749
     -3.118118     20.073596     20.073596     40.147192
     -3.108108     23.381894     23.381894     46.763788
     -3.098098     27.155807     27.155807     54.311614
     -3.088088     30.778174     30.778174     61.556348
     -3.078078     33.538488     33.538488     67.076976
     -3.068068     34.882191     34.882191     69.764382
     -3.058058     34.594505     34.594505     69.189010
     -3.048048     32.837035     32.837035     65.674069
     -3.038038     30.033129     30.033129     60.066259
     -3.028028     26.676285     26.676285     53.352569
     -3.018018     23.168272     23.168272     46.336544
     -3.008008     19.762540     19.762540     39.525080
     -2.997998     16.617322     16.617322     33.234643
     -2.987988     13.899643     13.899643     27.799286
     -2.977978     11.862973     11.862973     23.725945
     -2.967968     10.849449     10.849449     21.698899
     -2.957958     11.214720     11.214720     22.429439
     -2.947948     13.208723     13.208723     26.417446
     -2.937938     16.857639     16.857639     33.715278
     -2.927928     21.887909     21.887909     43.775818
     -2.917918     27.723045     27.723045     55.446090
     -2.907908     33.569142     33.569142     67.138284
     -2.897898     38.580972     38.580972     77.161944
     -2.887888     42.068219     42.068219     84.136438
     -2.877878     43.674041     43.674041     87.348081
     -2.867868     43.454746     43.454746     86.909492
     -2.857858     41.821023     41.821023     83.642046
     -2.847848     39.359263     39.359263     78.718525
     -2.837838     36.608601     36.608601     73.217202
     -2.827828     33.892862     33.892862     67.785724
     -2.817818     31.279464     31.279464     62.558928
     -2.807808     28.671157     28.671157     57.342313
     -2.797798     25.967253     25.967253     51.934507
     -2.787788     23.198276     23.198276     46.396551
     -2.777778     20.560122     20.560122     41.120244
     -2.767768     18.336961     18.336961     36.673922
     -2.757758     16.768196     16.768196     33.536393
     -2.747748     15.944965     15.944965     31.889931
     -2.737738     15.798200     15.798200     31.596400
     -2.727728     16.178173     16.178173     32.356346
     -2.717718     16.964062     16.964062     33.928123
     -2.707708     18.122419     18.122419     36.244839
     -2.697698     19.671081     19.671081     39.342162
     -2.687688     21.576457     21.576457     43.152914
     -2.677678     23.667307     23.667307     47.334614
     -2.667668     25.644122     25.644122     51.288245
     -2.657658     27.198086     27.198086     54.396172
     -2.647648     28.171666     28.171666     56.343333
     -2.637638     28.654954     28.654954     57.309907
     -2.627628     28.948529     28.948529     57.897058
     -2.617618     29.410082     29.410082     58.820164
     -2.607608     30.275254     30.275254     60.550508
     -2.597598     31.551518     31.551518     63.103035
     -2.587588     33.026742     33.026742     66.053484
     -2.577578     34.360242     34.360242     68.720484
     -2.567568     35.189237     35.189237     70.378474
     -2.557558     35.205130     35.205130     70.410261
     -2.547548     34.200989     34.200989     68.401978
     -2.537538     32.116989     32.116989     64.233978
     -2.527528     29.094153     29.094153     58.188307
     -2.517518     25.509761     25.509761     51.019522
     -2.507508     21.949788     21.949788     43.899576
     -2.497497     19.095044     19.095044     38.190088
     -2.487487     17.544423     17.544423     35.088846
     -2.477477     17.638282     17.638282     35.276563
     -2.467467     19.353333     19.353333     38.706667
     -2.457457     22.315079     22.315079     44.630157
     -2.447447     25.928305     25.928305     51.856611
     -2.437437     29.578826     29.578826     59.157651
     -2.427427     32.827639     32.827639     65.655279
     -2.417417     35.516216     35.516216     71.032433
     -2.407407     37.734807     37.734807     75.469614
     -2.397397     39.666155     39.666155     79.332310
     -2.387387     41.380129     41.380129     82.760258
     -2.377377     42.688298     42.688298     85.376597
     -2.367367     43.147549     43.147549     86.295098
     -2.357357     42.229844     42.229844     84.459687
     -2.347347     39.584590     39.584590     79.169181
     -2.337337     35.262914     35.262914     70.525829
     -2.327327     29.787864     29.787864     59.575727
     -2.317317     24.035466     24.035466     48.070931
     -2.307307     18.988110     18.988110     37.976219
     -2.297297     15.474532     15.474532     30.949063
     -2.287287     13.994909     13.994909     27.989818
     -2.277277     14.668517     14.668517     29.337034
     -2.267267     17.281208     17.281208     34.562415
     -2.257257     21.382397     21.382397     42.764794
     -2.247247     26.387331     26.387331     52.774663
     -2.237237     31.661590     31.661590     63.323179
     -2.227227     36.583696     36.583696     73.167392
     -2.217217     40.592129     40.592129     81.184259
     -2.207207     43.226849     43.226849     86.453698
     -2.197197     44.174617     44.174617     88.349235
     -2.187187     43.320366     43.320366     86.640732
     -2.177177     40.792452     40.792452     81.584905
     -2.167167     36.973548     36.973548     73.947096
     -2.157157     32.445342     32.445342     64.890684
     -2.147147     27.856922     27.856922     55.713845
     -2.137137     23.749470     23.749470     47.498941
     -2.127127     20.407723     20.407723     40.815446
     -2.117117     17.810012     17.810012     35.620025
     -2.107107     15.704048     15.704048     31.408097
     -2.097097     13.769794     13.769794     27.539588
     -2.087087     11.786820     11.786820     23.573639
     -2.077077      9.729312      9.729312     19.458623
     -2.067067      7.759503      7.759503     15.519005
     -2.057057      6.144259      6.144259     12.288517
     -2.047047      5.146339      5.146339     10.292678
     -2.037037      4.933563      4.933563      9.867125
     -2.027027      5.524046      5.524046     11.048091
     -2.017017      6.767999      6.767999     13.535998
     -2.007007      8.365401      8.365401     16.730801
     -1.996997      9.923749      9.923749     19.847499
     -1.986987     11.054912     11.054912     22.109824
     -1.976977     11.490740     11.490740     22.981480
     -1.966967     11.177091     11.177091     22.354182
     -1.956957     10.304136     10.304136     20.608271
     -1.946947      9.254063      9.254063     18.508126
     -1.936937      8.483048      8.483048     16.966096
     -1.926927      8.381202      8.381202     16.762405
     -1.916917      9.158835      9.158835     18.317670
     -1.906907     10.791996     10.791996     21.583992
     -1.896897     13.036799     13.036799     26.073597
     -1.886887     15.501084     15.501084     31.002169
     -1.876877     17.748663     17.748663     35.497325
     -1.866867     19.406813     19.406813     38.813627
     -1.856857     20.251207     20.251207     40.502414
     -1.846847     20.250451     20.250451     40.500903
     -1.836837     19.560733     19.560733     39.121466
     -1.826827     18.468671     18.468671     36.937341
     -1.816817     17.292025     17.292025     34.584050
     -1.806807     16.265806     16.265806     32.531612
     -1.796797     15.457523     15.457523     30.915047
     -1.786787     14.753361     14.753361     29.506722
     -1.776777     13.927910     13.927910     27.855821
     -1.766767     12.766077     12.766077     25.532154
     -1.756757     11.175583     11.175583     22.351167
     -1.746747      9.234794      9.234794     18.469588
     -1.736737      7.160036      7.160036     14.320071
     -1.726727      5.221777      5.221777     10.443554
     -1.716717      3.660376      3.660376      7.320752
     -1.706707      2.639686      2.639686      5.279373
     -1.696697      2.244528      2.244528      4.489056
     -1.686687      2.499750      2.499750      4.999500
     -1.676677      3.381065      3.381065      6.762131
     -1.666667      4.802345      4.802345      9.604690
     -1.656657      6.589190      6.589190     13.178379
     -1.646647      8.467877      8.467877     16.935754
     -1.636637     10.098863     10.098863     20.197726
     -1.626627     11.162249     11.162249     22.324498
