# EIG2DOS: Utility for SIESTA to obtain the electronic density of states
#  E. Artacho, Apr 1999, A. Garcia, Apr 2012
#  Nick R. Papior, Feb 2017
# ------------------------------------------
# Eigenvalues calculated from a non-polarized calculation
# Eigenvalues read from siesta.EIG
# Kpoint weights read from siesta.KP
# Using smearing parameter:   0.0500
# Using 1000 points in the energy range
# Selected bands: 1 to: 2981
# Emin, Emax in file for selected band(s):    -27.2907948    218.3825810
# Nbands, Nspin, Nk   =   2981     1     1
# E_F                 =    -4.2184 eV --> (shifted to ZERO)
# Broadening          =     0.0500 eV
#
#        E            N(up)  (=)   N(down)         Ntot
     -5.000000     33.795910     33.795910     67.591820
     -4.989990     38.118544     38.118544     76.237088
     -4.979980     41.851838     41.851838     83.703676
     -4.969970     44.388687     44.388687     88.777373
     -4.959960     45.283910     45.283910     90.567821
     -4.949950     44.401053     44.401053     88.802106
     -4.939940     41.966666     41.966666     83.933333
     -4.929930     38.525887     38.525887     77.051774
     -4.919920     34.834820     34.834820     69.669641
     -4.909910     31.733437     31.733437     63.466875
     -4.899900     30.018278     30.018278     60.036556
     -4.889890     30.305543     30.305543     60.611086
     -4.879880     32.875421     32.875421     65.750841
     -4.869870     37.525903     37.525903     75.051805
     -4.859860     43.509527     43.509527     87.019054
     -4.849850     49.632516     49.632516     99.265032
     -4.839840     54.537843     54.537843    109.075686
     -4.829830     57.095739     57.095739    114.191478
     -4.819820     56.748915     56.748915    113.497830
     -4.809810     53.662102     53.662102    107.324205
     -4.799800     48.614150     48.614150     97.228300
     -4.789790     42.695155     42.695155     85.390310
     -4.779780     36.955782     36.955782     73.911564
     -4.769770     32.154296     32.154296     64.308593
     -4.759760     28.670938     28.670938     57.341876
     -4.749750     26.565058     26.565058     53.130115
     -4.739740     25.693623     25.693623     51.387247
     -4.729730     25.810525     25.810525     51.621051
     -4.719720     26.607867     26.607867     53.215733
     -4.709710     27.711843     27.711843     55.423685
     -4.699700     28.680496     28.680496     57.360993
     -4.689690     29.053235     29.053235     58.106470
     -4.679680     28.469977     28.469977     56.939953
     -4.669670     26.826250     26.826250     53.652499
     -4.659660     24.390543     24.390543     48.781087
     -4.649650     21.810504     21.810504     43.621008
     -4.639640     19.978272     19.978272     39.956545
     -4.629630     19.785979     19.785979     39.571958
     -4.619620     21.846554     21.846554     43.693108
     -4.609610     26.267532     26.267532     52.535063
     -4.599600     32.552599     32.552599     65.105198
     -4.589590     39.676708     39.676708     79.353416
     -4.579580     46.336019     46.336019     92.672039
     -4.569570     51.314198     51.314198    102.628395
     -4.559560     53.849404     53.849404    107.698809
     -4.549550     53.865195     53.865195    107.730389
     -4.539540     51.968202     51.968202    103.936403
     -4.529530     49.206736     49.206736     98.413472
     -4.519520     46.684424     46.684424     93.368848
     -4.509510     45.181507     45.181507     90.363013
     -4.499499     44.926121     44.926121     89.852243
     -4.489489     45.587383     45.587383     91.174766
     -4.479479     46.467426     46.467426     92.934852
     -4.469469     46.794247     46.794247     93.588493
     -4.459459     45.991799     45.991799     91.983598
     -4.449449     43.833766     43.833766     87.667531
     -4.439439     40.452495     40.452495     80.904991
     -4.429429     36.240126     36.240126     72.480252
     -4.419419     31.713187     31.713187     63.426373
     -4.409409     27.402305     27.402305     54.804611
     -4.399399     23.787891     23.787891     47.575783
     -4.389389     21.261960     21.261960     42.523920
     -4.379379     20.084578     20.084578     40.169155
     -4.369369     20.326747     20.326747     40.653494
     -4.359359     21.827750     21.827750     43.655501
     -4.349349     24.210862     24.210862     48.421724
     -4.339339     26.979736     26.979736     53.959472
     -4.329329     29.671498     29.671498     59.342996
     -4.319319     32.004231     32.004231     64.008462
     -4.309309     33.952495     33.952495     67.904990
     -4.299299     35.716186     35.716186     71.432373
     -4.289289     37.594241     37.594241     75.188483
     -4.279279     39.811195     39.811195     79.622389
     -4.269269     42.360645     42.360645     84.721290
     -4.259259     44.927452     44.927452     89.854903
     -4.249249     46.932436     46.932436     93.864871
     -4.239239     47.706102     47.706102     95.412204
     -4.229229     46.742852     46.742852     93.485703
     -4.219219     43.935109     43.935109     87.870217
     -4.209209     39.673917     39.673917     79.347834
     -4.199199     34.752173     34.752173     69.504345
     -4.189189     30.101826     30.101826     60.203651
     -4.179179     26.482827     26.482827     52.965653
     -4.169169     24.265196     24.265196     48.530391
     -4.159159     23.392620     23.392620     46.785241
     -4.149149     23.521492     23.521492     47.042984
     -4.139139     24.248421     24.248421     48.496842
     -4.129129     25.309578     25.309578     50.619155
     -4.119119     26.660490     26.660490     53.320980
     -4.109109     28.405881     28.405881     56.811761
     -4.099099     30.620496     30.620496     61.240991
     -4.089089     33.158882     33.158882     66.317764
     -4.079079     35.569021     35.569021     71.138042
     -4.069069     37.183130     37.183130     74.366260
     -4.059059     37.367152     37.367152     74.734305
     -4.049049     35.814328     35.814328     71.628655
     -4.039039     32.729565     32.729565     65.459129
     -4.029029     28.802662     28.802662     57.605324
     -4.019019     24.982175     24.982175     49.964350
     -4.009009     22.165965     22.165965     44.331931
     -3.998999     20.954885     20.954885     41.909769
     -3.988989     21.561334     21.561334     43.122669
     -3.978979     23.869272     23.869272     47.738544
     -3.968969     27.570364     27.570364     55.140729
     -3.958959     32.290449     32.290449     64.580897
     -3.948949     37.662659     37.662659     75.325318
     -3.938939     43.356426     43.356426     86.712853
     -3.928929     49.093954     49.093954     98.187908
     -3.918919     54.668122     54.668122    109.336243
     -3.908909     59.943862     59.943862    119.887724
     -3.898899     64.815273     64.815273    129.630546
     -3.888889     69.117501     69.117501    138.235001
     -3.878879     72.535882     72.535882    145.071763
     -3.868869     74.578507     74.578507    149.157014
     -3.858859     74.659071     74.659071    149.318141
     -3.848849     72.282026     72.282026    144.564051
     -3.838839     67.262967     67.262967    134.525933
     -3.828829     59.887881     59.887881    119.775761
     -3.818819     50.932431     50.932431    101.864861
     -3.808809     41.518587     41.518587     83.037174
     -3.798799     32.852787     32.852787     65.705575
     -3.788789     25.935301     25.935301     51.870603
     -3.778779     21.335676     21.335676     42.671352
     -3.768769     19.097368     19.097368     38.194735
     -3.758759     18.786113     18.786113     37.572225
     -3.748749     19.653919     19.653919     39.307837
     -3.738739     20.866018     20.866018     41.732036
     -3.728729     21.731677     21.731677     43.463354
     -3.718719     21.885025     21.885025     43.770049
     -3.708709     21.373977     21.373977     42.747953
     -3.698699     20.632685     20.632685     41.265369
     -3.688689     20.337125     20.337125     40.674249
     -3.678679     21.174398     21.174398     42.348797
     -3.668669     23.588643     23.588643     47.177286
     -3.658659     27.587327     27.587327     55.174655
     -3.648649     32.684892     32.684892     65.369784
     -3.638639     38.017287     38.017287     76.034574
     -3.628629     42.592197     42.592197     85.184395
     -3.618619     45.578519     45.578519     91.157037
     -3.608609     46.522090     46.522090     93.044179
     -3.598599     45.415816     45.415816     90.831631
     -3.588589     42.625725     42.625725     85.251450
     -3.578579     38.733096     38.733096     77.466192
     -3.568569     34.364947     34.364947     68.729895
     -3.558559     30.058338     30.058338     60.116677
     -3.548549     26.171961     26.171961     52.343922
     -3.538539     22.846907     22.846907     45.693815
     -3.528529     20.022570     20.022570     40.045139
     -3.518519     17.510739     17.510739     35.021478
     -3.508509     15.109822     15.109822     30.219644
     -3.498498     12.715933     12.715933     25.431867
     -3.488488     10.382933     10.382933     20.765866
     -3.478478      8.307702      8.307702     16.615404
     -3.468468      6.753816      6.753816     13.507631
     -3.458458      5.951171      5.951171     11.902343
     -3.448448      6.010076      6.010076     12.020152
     -3.438438      6.874732      6.874732     13.749464
     -3.428428      8.328041      8.328041     16.656082
     -3.418418     10.051453     10.051453     20.102906
     -3.408408     11.732300     11.732300     23.464600
     -3.398398     13.190276     13.190276     26.380553
     -3.388388     14.472927     14.472927     28.945854
     -3.378378     15.867195     15.867195     31.734390
     -3.368368     17.803636     17.803636     35.607271
     -3.358358     20.681788     20.681788     41.363576
     -3.348348     24.688459     24.688459     49.376917
     -3.338338     29.685432     29.685432     59.370865
     -3.328328     35.205546     35.205546     70.411093
     -3.318318     40.543416     40.543416     81.086832
     -3.308308     44.896311     44.896311     89.792622
     -3.298298     47.516496     47.516496     95.032992
     -3.288288     47.858977     47.858977     95.717954
     -3.278278     45.715264     45.715264     91.430527
     -3.268268     41.304554     41.304554     82.609108
     -3.258258     35.274386     35.274386     70.548772
     -3.248248     28.577236     28.577236     57.154471
     -3.238238     22.241734     22.241734     44.483467
     -3.228228     17.112975     17.112975     34.225951
     -3.218218     13.655206     13.655206     27.310413
     -3.208208     11.881285     11.881285     23.762570
     -3.198198     11.420182     11.420182     22.840363
     -3.188188     11.687705     11.687705     23.375411
     -3.178178     12.101356     12.101356     24.202711
     -3.168168     12.274946     12.274946     24.549893
     -3.158158     12.136928     12.136928     24.273857
     -3.148148     11.937484     11.937484     23.874969
     -3.138138     12.142364     12.142364     24.284727
     -3.128128     13.247430     13.247430     26.494860
     -3.118118     15.574117     15.574117     31.148234
     -3.108108     19.113475     19.113475     38.226950
     -3.098098     23.474059     23.474059     46.948119
     -3.088088     27.959235     27.959235     55.918470
     -3.078078     31.756888     31.756888     63.513777
     -3.068068     34.179182     34.179182     68.358364
     -3.058058     34.861422     34.861422     69.722843
     -3.048048     33.838926     33.838926     67.677853
     -3.038038     31.474214     31.474214     62.948429
     -3.028028     28.280140     28.280140     56.560280
     -3.018018     24.734829     24.734829     49.469659
     -3.008008     21.178642     21.178642     42.357284
     -2.997998     17.825956     17.825956     35.651913
     -2.987988     14.854643     14.854643     29.709286
     -2.977978     12.498406     12.498406     24.996813
     -2.967968     11.078825     11.078825     22.157650
     -2.957958     10.956848     10.956848     21.913697
     -2.947948     12.425387     12.425387     24.850773
     -2.937938     15.585796     15.585796     31.171593
     -2.927928     20.252895     20.252895     40.505791
     -2.917918     25.925586     25.925586     51.851172
     -2.907908     31.846863     31.846863     63.693725
     -2.897898     37.153867     37.153867     74.307735
     -2.887888     41.085013     41.085013     82.170027
     -2.877878     43.178764     43.178764     86.357527
     -2.867868     43.387544     43.387544     86.775089
     -2.857858     42.054764     42.054764     84.109528
     -2.847848     39.758203     39.758203     79.516405
     -2.837838     37.084187     37.084187     74.168375
     -2.827828     34.431167     34.431167     68.862335
     -2.817818     31.927285     31.927285     63.854571
     -2.807808     29.488600     29.488600     58.977199
     -2.797798     26.972717     26.972717     53.945433
     -2.787788     24.336102     24.336102     48.672204
     -2.777778     21.708200     21.708200     43.416401
     -2.767768     19.348394     19.348394     38.696788
     -2.757758     17.521705     17.521705     35.043411
     -2.747748     16.375067     16.375067     32.750133
     -2.737738     15.890848     15.890848     31.781697
     -2.727728     15.941412     15.941412     31.882825
     -2.717718     16.400718     16.400718     32.801435
     -2.707708     17.230477     17.230477     34.460953
     -2.697698     18.476347     18.476347     36.952694
     -2.687688     20.174682     20.174682     40.349364
     -2.677678     22.238947     22.238947     44.477894
     -2.667668     24.417253     24.417253     48.834506
     -2.657658     26.368340     26.368340     52.736679
     -2.647648     27.820222     27.820222     55.640445
     -2.637638     28.712422     28.712422     57.424843
     -2.627628     29.227060     29.227060     58.454120
     -2.617618     29.685427     29.685427     59.370853
     -2.607608     30.373767     30.373767     60.747533
     -2.597598     31.401860     31.401860     62.803719
     -2.587588     32.664769     32.664769     65.329539
     -2.577578     33.903212     33.903212     67.806424
     -2.567568     34.801983     34.801983     69.603967
     -2.557558     35.067481     35.067481     70.134962
     -2.547548     34.471088     34.471088     68.942175
     -2.537538     32.885925     32.885925     65.771850
     -2.527528     30.342167     30.342167     60.684333
     -2.517518     27.086861     27.086861     54.173721
     -2.507508     23.599133     23.599133     47.198267
     -2.497497     20.516836     20.516836     41.033673
     -2.487487     18.476234     18.476234     36.952469
     -2.477477     17.919827     17.919827     35.839654
     -2.467467     18.953163     18.953163     37.906325
     -2.457457     21.315385     21.315385     42.630771
     -2.447447     24.480701     24.480701     48.961402
     -2.437437     27.851969     27.851969     55.703939
     -2.427427     30.966721     30.966721     61.933443
     -2.417417     33.627500     33.627500     67.255000
     -2.407407     35.898645     35.898645     71.797291
     -2.397397     37.970808     37.970808     75.941615
     -2.387387     39.958011     39.958011     79.916021
     -2.377377     41.730126     41.730126     83.460252
     -2.367367     42.874581     42.874581     85.749162
     -2.357357     42.823519     42.823519     85.647037
     -2.347347     41.099701     41.099701     82.199402
     -2.337337     37.568114     37.568114     75.136227
     -2.327327     32.570176     32.570176     65.140352
     -2.317317     26.874051     26.874051     53.748101
     -2.307307     21.466163     21.466163     42.932325
     -2.297297     17.280693     17.280693     34.561386
     -2.287287     14.976259     14.976259     29.952518
     -2.277277     14.825625     14.825625     29.651249
     -2.267267     16.722397     16.722397     33.444794
     -2.257257     20.266404     20.266404     40.532807
     -2.247247     24.879999     24.879999     49.759997
     -2.237237     29.919591     29.919591     59.839182
     -2.227227     34.763157     34.763157     69.526314
     -2.217217     38.867383     38.867383     77.734766
     -2.207207     41.798555     41.798555     83.597110
     -2.197197     43.250735     43.250735     86.501470
     -2.187187     43.068205     43.068205     86.136410
     -2.177177     41.279422     41.279422     82.558844
     -2.167167     38.127373     38.127373     76.254746
     -2.157157     34.061197     34.061197     68.122394
     -2.147147     29.657429     29.657429     59.314859
     -2.137137     25.474513     25.474513     50.949025
     -2.127127     21.892531     21.892531     43.785062
     -2.117117     19.015020     19.015020     38.030040
     -2.107107     16.686160     16.686160     33.372320
     -2.097097     14.614922     14.614922     29.229845
     -2.087087     12.538692     12.538692     25.077384
     -2.077077     10.342435     10.342435     20.684870
     -2.067067      8.084042      8.084042     16.168084
     -2.057057      5.934603      5.934603     11.869207
     -2.047047      4.084712      4.084712      8.169424
     -2.037037      2.672323      2.672323      5.344647
     -2.027027      1.760726      1.760726      3.521452
     -2.017017      1.360414      1.360414      2.720829
     -2.007007      1.466922      1.466922      2.933845
     -1.996997      2.084915      2.084915      4.169830
     -1.986987      3.222211      3.222211      6.444422
     -1.976977      4.857120      4.857120      9.714239
     -1.966967      6.900190      6.900190     13.800381
     -1.956957      9.179230      9.179230     18.358460
     -1.946947     11.467711     11.467711     22.935423
     -1.936937     13.552080     13.552080     27.104160
     -1.926927     15.305516     15.305516     30.611032
     -1.916917     16.724450     16.724450     33.448901
     -1.906907     17.901881     17.901881     35.803762
     -1.896897     18.949719     18.949719     37.899439
     -1.886887     19.914961     19.914961     39.829922
     -1.876877     20.738263     20.738263     41.476526
     -1.866867     21.277122     21.277122     42.554243
     -1.856857     21.379158     21.379158     42.758317
     -1.846847     20.966675     20.966675     41.933350
     -1.836837     20.090764     20.090764     40.181528
     -1.826827     18.927622     18.927622     37.855245
     -1.816817     17.713823     17.713823     35.427646
     -1.806807     16.645186     16.645186     33.290373
     -1.796797     15.786043     15.786043     31.572086
     -1.786787     15.037853     15.037853     30.075707
     -1.776777     14.189620     14.189620     28.379239
     -1.766767     13.027706     13.027706     26.055412
     -1.756757     11.447505     11.447505     22.895010
     -1.746747      9.508935      9.508935     19.017871
     -1.736737      7.413018      7.413018     14.826036
     -1.726727      5.422800      5.422800     10.845600
     -1.716717      3.777782      3.777782      7.555564
     -1.706707      2.643294      2.643294      5.286588
     -1.696697      2.105737      2.105737      4.211474
     -1.686687      2.194484      2.194484      4.388968
     -1.676677      2.899516      2.899516      5.799032
     -1.666667      4.164352      4.164352      8.328704
     -1.656657      5.857599      5.857599     11.715198
     -1.646647      7.748719      7.748719     15.497437
     -1.636637      9.520403      9.520403     19.040807
     -1.626627     10.835001     10.835001     21.670002
