# EIG2DOS: Utility for SIESTA to obtain the electronic density of states
#  E. Artacho, Apr 1999, A. Garcia, Apr 2012
#  Nick R. Papior, Feb 2017
# ------------------------------------------
# Eigenvalues calculated from a non-polarized calculation
# Eigenvalues read from siesta.EIG
# Kpoint weights read from siesta.KP
# Using smearing parameter:   0.0500
# Using 1000 points in the energy range
# Selected bands: 1 to: 2981
# Emin, Emax in file for selected band(s):    -27.1230696    218.3717830
# Nbands, Nspin, Nk   =   2981     1     1
# E_F                 =    -4.2285 eV --> (shifted to ZERO)
# Broadening          =     0.0500 eV
#
#        E            N(up)  (=)   N(down)         Ntot
     -5.000000     32.289476     32.289476     64.578952
     -4.989990     36.705386     36.705386     73.410773
     -4.979980     40.768195     40.768195     81.536390
     -4.969970     43.832290     43.832290     87.664581
     -4.959960     45.351425     45.351425     90.702849
     -4.949950     45.056213     45.056213     90.112425
     -4.939940     43.051950     43.051950     86.103901
     -4.929930     39.808546     39.808546     79.617092
     -4.919920     36.064470     36.064470     72.128940
     -4.909910     32.690498     32.690498     65.380997
     -4.899900     30.545727     30.545727     61.091455
     -4.889890     30.328536     30.328536     60.657073
     -4.879880     32.414788     32.414788     64.829575
     -4.869870     36.703092     36.703092     73.406183
     -4.859860     42.532224     42.532224     85.064447
     -4.849850     48.752196     48.752196     97.504393
     -4.839840     53.984394     53.984394    107.968787
     -4.829830     57.010814     57.010814    114.021628
     -4.819820     57.146010     57.146010    114.292020
     -4.809810     54.430879     54.430879    108.861759
     -4.799800     49.564645     49.564645     99.129290
     -4.789790     43.617560     43.617560     87.235120
     -4.779780     37.665394     37.665394     75.330787
     -4.769770     32.501446     32.501446     65.002892
     -4.759760     28.514984     28.514984     57.029969
     -4.749750     25.729676     25.729676     51.459351
     -4.739740     23.931031     23.931031     47.862062
     -4.729730     22.802832     22.802832     45.605664
     -4.719720     22.023454     22.023454     44.046909
     -4.709710     21.312924     21.312924     42.625849
     -4.699700     20.449029     20.449029     40.898057
     -4.689690     19.279838     19.279838     38.559677
     -4.679680     17.752181     17.752181     35.504363
     -4.669670     15.956155     15.956155     31.912311
     -4.659660     14.164675     14.164675     28.329350
     -4.649650     12.836863     12.836863     25.673726
     -4.639640     12.561391     12.561391     25.122782
     -4.629630     13.936080     13.936080     27.872159
     -4.619620     17.403353     17.403353     34.806706
     -4.609610     23.081077     23.081077     46.162154
     -4.599600     30.642461     30.642461     61.284922
     -4.589590     39.300981     39.300981     78.601963
     -4.579580     47.935956     47.935956     95.871913
     -4.569570     55.347352     55.347352    110.694705
     -4.559560     60.569883     60.569883    121.139767
     -4.549550     63.137644     63.137644    126.275288
     -4.539540     63.197566     63.197566    126.395131
     -4.529530     61.424279     61.424279    122.848558
     -4.519520     58.766026     58.766026    117.532053
     -4.509510     56.116630     56.116630    112.233261
     -4.499499     54.035451     54.035451    108.070902
     -4.489489     52.615407     52.615407    105.230813
     -4.479479     51.536781     51.536781    103.073561
     -4.469469     50.267208     50.267208    100.534416
     -4.459459     48.311002     48.311002     96.622004
     -4.449449     45.401657     45.401657     90.803315
     -4.439439     41.573138     41.573138     83.146275
     -4.429429     37.112669     37.112669     74.225339
     -4.419419     32.450725     32.450725     64.901451
     -4.409409     28.054217     28.054217     56.108434
     -4.399399     24.357721     24.357721     48.715442
     -4.389389     21.723767     21.723767     43.447534
     -4.379379     20.402017     20.402017     40.804033
     -4.369369     20.473216     20.473216     40.946433
     -4.359359     21.799986     21.799986     43.599971
     -4.349349     24.028546     24.028546     48.057092
     -4.339339     26.670619     26.670619     53.341239
     -4.329329     29.250532     29.250532     58.501064
     -4.319319     31.460099     31.460099     62.920198
     -4.309309     33.252265     33.252265     66.504529
     -4.299299     34.829722     34.829722     69.659444
     -4.289289     36.529108     36.529108     73.058217
     -4.279279     38.641517     38.641517     77.283035
     -4.269269     41.233386     41.233386     82.466772
     -4.259259     44.037437     44.037437     88.074873
     -4.249249     46.470401     46.470401     92.940803
     -4.239239     47.796917     47.796917     95.593834
     -4.229229     47.397922     47.397922     94.795844
     -4.219219     45.039645     45.039645     90.079290
     -4.209209     41.016374     41.016374     82.032748
     -4.199199     36.085446     36.085446     72.170892
     -4.189189     31.212414     31.212414     62.424829
     -4.179179     27.242053     27.242053     54.484105
     -4.169169     24.646188     24.646188     49.292375
     -4.159159     23.452072     23.452072     46.904143
     -4.149149     23.358214     23.358214     46.716427
     -4.139139     23.956749     23.956749     47.913497
     -4.129129     24.945002     24.945002     49.890003
     -4.119119     26.229855     26.229855     52.459710
     -4.109109     27.886175     27.886175     55.772350
     -4.099099     29.998763     29.998763     59.997526
     -4.089089     32.473741     32.473741     64.947481
     -4.079079     34.928737     34.928737     69.857475
     -4.069069     36.743299     36.743299     73.486598
     -4.059059     37.272363     37.272363     74.544726
     -4.049049     36.131211     36.131211     72.262422
     -4.039039     33.407355     33.407355     66.814710
     -4.029029     29.683908     29.683908     59.367816
     -4.019019     25.858346     25.858346     51.716692
     -4.009009     22.848657     22.848657     45.697314
     -3.998999     21.328316     21.328316     42.656632
     -3.988989     21.596889     21.596889     43.193778
     -3.978979     23.605724     23.605724     47.211448
     -3.968969     27.078855     27.078855     54.157710
     -3.958959     31.643723     31.643723     63.287446
     -3.948949     36.917587     36.917587     73.835173
     -3.938939     42.547876     42.547876     85.095753
     -3.928929     48.234914     48.234914     96.469828
     -3.918919     53.755314     53.755314    107.510628
     -3.908909     58.972673     58.972673    117.945347
     -3.898899     63.805220     63.805220    127.610440
     -3.888889     68.139633     68.139633    136.279266
     -3.878879     71.724587     71.724587    143.449173
     -3.868869     74.111854     74.111854    148.223709
     -3.858859     74.706656     74.706656    149.413312
     -3.848849     72.939153     72.939153    145.878306
     -3.838839     68.501507     68.501507    137.003013
     -3.828829     61.548559     61.548559    123.097118
     -3.818819     52.763519     52.763519    105.527037
     -3.808809     43.244323     43.244323     86.488645
     -3.798799     34.243913     34.243913     68.487826
     -3.788789     26.858023     26.858023     53.716045
     -3.778779     21.768559     21.768559     43.537119
     -3.768769     19.118724     19.118724     38.237448
     -3.758759     18.541333     18.541333     37.082666
     -3.748749     19.313103     19.313103     38.626206
     -3.738739     20.580716     20.580716     41.161433
     -3.728729     21.598452     21.598452     43.196904
     -3.718719     21.923061     21.923061     43.846121
     -3.708709     21.522597     21.522597     43.045195
     -3.698699     20.771208     20.771208     41.542415
     -3.688689     20.323917     20.323917     40.647835
     -3.678679     20.895482     20.895482     41.790964
     -3.668669     23.000956     23.000956     46.001912
     -3.658659     26.740831     26.740831     53.481662
     -3.648649     31.713476     31.713476     63.426951
     -3.638639     37.100302     37.100302     74.200603
     -3.628629     41.901390     41.901390     83.802780
     -3.618619     45.231663     45.231663     90.463326
     -3.608609     46.560109     46.560109     93.120218
     -3.598599     45.807258     45.807258     91.614517
     -3.588589     43.289596     43.289596     86.579192
     -3.578579     39.566258     39.566258     79.132516
     -3.568569     35.264611     35.264611     70.529221
     -3.558559     30.937595     30.937595     61.875190
     -3.548549     26.970130     26.970130     53.940260
     -3.538539     23.535033     23.535033     47.070065
     -3.528529     20.601777     20.601777     41.203554
     -3.518519     18.001863     18.001863     36.003727
     -3.508509     15.537034     15.537034     31.074068
     -3.498498     13.091202     13.091202     26.182405
     -3.488488     10.698172     10.698172     21.396344
     -3.478478      8.537336      8.537336     17.074673
     -3.468468      6.865471      6.865471     13.730942
     -3.458458      5.919332      5.919332     11.838665
     -3.448448      5.827216      5.827216     11.654432
     -3.438438      6.554784      6.554784     13.109568
     -3.428428      7.897101      7.897101     15.794203
     -3.418418      9.521708      9.521708     19.043415
     -3.408408     11.059890     11.059890     22.119781
     -3.398398     12.226910     12.226910     24.453820
     -3.388388     12.931218     12.931218     25.862437
     -3.378378     13.324843     13.324843     26.649685
     -3.368368     13.765763     13.765763     27.531526
     -3.358358     14.702351     14.702351     29.404703
     -3.348348     16.525114     16.525114     33.050228
     -3.338338     19.438465     19.438465     38.876930
     -3.328328     23.383630     23.383630     46.767260
     -3.318318     28.015777     28.015777     56.031555
     -3.308308     32.729559     32.729559     65.459118
     -3.298298     36.739354     36.739354     73.478708
     -3.288288     39.228266     39.228266     78.456533
     -3.278278     39.556711     39.556711     79.113421
     -3.268268     37.472441     37.472441     74.944882
     -3.258258     33.229798     33.229798     66.459596
     -3.248248     27.547358     27.547358     55.094716
     -3.238238     21.408326     21.408326     42.816652
     -3.228228     15.787637     15.787637     31.575274
     -3.218218     11.418233     11.418233     22.836467
     -3.208208      8.671474      8.671474     17.342948
     -3.198198      7.558542      7.558542     15.117084
     -3.188188      7.811646      7.811646     15.623292
     -3.178178      8.999074      8.999074     17.998148
     -3.168168     10.650283     10.650283     21.300567
     -3.158158     12.382706     12.382706     24.765412
     -3.148148     14.013473     14.013473     28.026946
     -3.138138     15.619151     15.619151     31.238301
     -3.128128     17.502921     17.502921     35.005841
     -3.118118     20.058036     20.058036     40.116073
     -3.108108     23.567751     23.567751     47.135502
     -3.098098     28.023405     28.023405     56.046810
     -3.088088     33.044987     33.044987     66.089974
     -3.078078     37.946703     37.946703     75.893405
     -3.068068     41.924998     41.924998     83.849995
     -3.058058     44.292057     44.292057     88.584114
     -3.048048     44.661244     44.661244     89.322489
     -3.038038     43.019063     43.019063     86.038127
     -3.028028     39.674749     39.674749     79.349498
     -3.018018     35.133120     35.133120     70.266239
     -3.008008     29.960564     29.960564     59.921127
     -2.997998     24.698447     24.698447     49.396894
     -2.987988     19.837383     19.837383     39.674766
     -2.977978     15.827556     15.827556     31.655113
     -2.967968     13.085852     13.085852     26.171704
     -2.957958     11.971615     11.971615     23.943231
     -2.947948     12.726030     12.726030     25.452061
     -2.937938     15.391319     15.391319     30.782638
     -2.927928     19.739628     19.739628     39.479255
     -2.917918     25.247226     25.247226     50.494452
     -2.907908     31.144775     31.144775     62.289551
     -2.897898     36.553811     36.553811     73.107622
     -2.887888     40.684257     40.684257     81.368514
     -2.877878     43.031655     43.031655     86.063310
     -2.867868     43.497656     43.497656     86.995312
     -2.857858     42.378670     42.378670     84.757339
     -2.847848     40.221116     40.221116     80.442232
     -2.837838     37.602703     37.602703     75.205407
     -2.827828     34.935047     34.935047     69.870094
     -2.817818     32.372252     32.372252     64.744504
     -2.807808     29.856194     29.856194     59.712388
     -2.797798     27.259762     27.259762     54.519525
     -2.787788     24.541677     24.541677     49.083354
     -2.777778     21.826579     21.826579     43.653157
     -2.767768     19.371385     19.371385     38.742769
     -2.757758     17.446312     17.446312     34.892624
     -2.747748     16.207792     16.207792     32.415583
     -2.737738     15.642200     15.642200     31.284400
     -2.727728     15.612541     15.612541     31.225081
     -2.717718     15.972844     15.972844     31.945687
     -2.707708     16.669650     16.669650     33.339301
     -2.697698     17.757597     17.757597     35.515194
     -2.687688     19.314847     19.314847     38.629694
     -2.677678     21.316628     21.316628     42.633256
     -2.667668     23.560987     23.560987     47.121975
     -2.657658     25.711540     25.711540     51.423080
     -2.647648     27.443497     27.443497     54.886994
     -2.637638     28.605162     28.605162     57.210324
     -2.627628     29.291140     29.291140     58.582280
     -2.617618     29.779474     29.779474     59.558948
     -2.607608     30.373341     30.373341     60.746682
     -2.597598     31.244845     31.244845     62.489691
     -2.587588     32.364883     32.364883     64.729767
     -2.577578     33.535429     33.535429     67.070859
     -2.567568     34.475742     34.475742     68.951484
     -2.557558     34.900343     34.900343     69.800686
     -2.547548     34.564632     34.564632     69.129265
     -2.537538     33.299959     33.299959     66.599918
     -2.527528     31.068517     31.068517     62.137033
     -2.517518     28.033744     28.033744     56.067488
     -2.507508     24.600029     24.600029     49.200058
     -2.497497     21.368818     21.368818     42.737636
     -2.487487     18.997334     18.997334     37.994669
     -2.477477     18.003830     18.003830     36.007659
     -2.467467     18.600224     18.600224     37.200449
     -2.457457     20.627234     20.627234     41.254468
     -2.447447     23.623777     23.623777     47.247553
     -2.437437     27.003906     27.003906     54.007811
     -2.427427     30.266525     30.266525     60.533050
     -2.417417     33.146419     33.146419     66.292838
     -2.407407     35.639218     35.639218     71.278435
     -2.397397     37.890461     37.890461     75.780922
     -2.387387     40.005246     40.005246     80.010491
     -2.377377     41.877841     41.877841     83.755681
     -2.367367     43.136632     43.136632     86.273263
     -2.357357     43.246866     43.246866     86.493732
     -2.347347     41.734898     41.734898     83.469796
     -2.337337     38.432057     38.432057     76.864114
     -2.327327     33.620598     33.620598     67.241195
     -2.317317     28.010032     28.010032     56.020065
     -2.307307     22.554796     22.554796     45.109591
     -2.297297     18.195800     18.195800     36.391600
     -2.287287     15.630182     15.630182     31.260364
     -2.277277     15.181707     15.181707     30.363415
     -2.267267     16.788135     16.788135     33.576270
     -2.257257     20.076786     20.076786     40.153572
     -2.247247     24.482577     24.482577     48.965154
     -2.237237     29.368122     29.368122     58.736243
     -2.227227     34.119460     34.119460     68.238920
     -2.217217     38.205504     38.205504     76.411007
     -2.207207     41.203776     41.203776     82.407552
     -2.197197     42.808770     42.808770     85.617540
     -2.187187     42.845662     42.845662     85.691323
     -2.177177     41.302737     41.302737     82.605474
     -2.167167     38.370782     38.370782     76.741564
     -2.157157     34.452326     34.452326     68.904652
     -2.147147     30.101587     30.101587     60.203175
     -2.137137     25.888874     25.888874     51.777748
     -2.127127     22.234803     22.234803     44.469607
     -2.117117     19.292766     19.292766     38.585532
     -2.107107     16.942747     16.942747     33.885494
     -2.097097     14.900578     14.900578     29.801156
     -2.087087     12.882471     12.882471     25.764943
     -2.077077     10.738583     10.738583     21.477167
     -2.067067      8.496271      8.496271     16.992543
     -2.057057      6.310981      6.310981     12.621962
     -2.047047      4.370499      4.370499      8.740999
     -2.037037      2.810075      2.810075      5.620149
     -2.027027      1.673749      1.673749      3.347498
     -2.017017      0.923623      0.923623      1.847246
     -2.007007      0.476208      0.476208      0.952415
     -1.996997      0.241723      0.241723      0.483446
     -1.986987      0.152175      0.152175      0.304350
     -1.976977      0.176105      0.176105      0.352210
     -1.966967      0.324446      0.324446      0.648892
     -1.956957      0.651477      0.651477      1.302955
     -1.946947      1.250325      1.250325      2.500651
     -1.936937      2.238402      2.238402      4.476804
     -1.926927      3.728551      3.728551      7.457102
     -1.916917      5.788225      5.788225     11.576451
     -1.906907      8.399104      8.399104     16.798207
     -1.896897     11.436313     11.436313     22.872627
     -1.886887     14.682683     14.682683     29.365366
     -1.876877     17.877955     17.877955     35.755909
     -1.866867     20.783883     20.783883     41.567765
     -1.856857     23.236355     23.236355     46.472710
     -1.846847     25.162432     25.162432     50.324864
     -1.836837     26.559020     26.559020     53.118040
     -1.826827     27.448383     27.448383     54.896765
     -1.816817     27.833860     27.833860     55.667719
     -1.806807     27.675738     27.675738     55.351475
     -1.796797     26.897393     26.897393     53.794786
     -1.786787     25.420399     25.420399     50.840798
     -1.776777     23.216336     23.216336     46.432672
     -1.766767     20.354337     20.354337     40.708674
     -1.756757     17.021350     17.021350     34.042701
     -1.746747     13.501054     13.501054     27.002109
     -1.736737     10.115996     10.115996     20.231992
     -1.726727      7.156430      7.156430     14.312860
     -1.716717      4.826487      4.826487      9.652975
     -1.706707      3.228115      3.228115      6.456230
     -1.696697      2.381592      2.381592      4.763183
     -1.686687      2.261465      2.261465      4.522930
     -1.676677      2.820230      2.820230      5.640461
     -1.666667      3.982419      3.982419      7.964838
     -1.656657      5.613404      5.613404     11.226808
     -1.646647      7.488426      7.488426     14.976852
     -1.636637      9.295305      9.295305     18.590609
     -1.626627     10.691510     10.691510     21.383020
