# EIG2DOS: Utility for SIESTA to obtain the electronic density of states
#  E. Artacho, Apr 1999, A. Garcia, Apr 2012
#  Nick R. Papior, Feb 2017
# ------------------------------------------
# Eigenvalues calculated from a non-polarized calculation
# Eigenvalues read from siesta.EIG
# Kpoint weights read from siesta.KP
# Using smearing parameter:   0.0500
# Using 1000 points in the energy range
# Selected bands: 1 to: 2981
# Emin, Emax in file for selected band(s):    -27.1240272    218.3671820
# Nbands, Nspin, Nk   =   2981     1     1
# E_F                 =    -4.2388 eV --> (shifted to ZERO)
# Broadening          =     0.0500 eV
#
#        E            N(up)  (=)   N(down)         Ntot
     -5.000000     33.104326     33.104326     66.208653
     -4.989990     37.394892     37.394892     74.789783
     -4.979980     41.197978     41.197978     82.395956
     -4.969970     43.912019     43.912019     87.824038
     -4.959960     45.065980     45.065980     90.131959
     -4.949950     44.471476     44.471476     88.942953
     -4.939940     42.292640     42.292640     84.585280
     -4.929930     39.019189     39.019189     78.038377
     -4.919920     35.371456     35.371456     70.742911
     -4.909910     32.179481     32.179481     64.358962
     -4.899900     30.257986     30.257986     60.515971
     -4.889890     30.269684     30.269684     60.539369
     -4.879880     32.565359     32.565359     65.130717
     -4.869870     37.023951     37.023951     74.047903
     -4.859860     42.965001     42.965001     85.930001
     -4.849850     49.220642     49.220642     98.441285
     -4.839840     54.403014     54.403014    108.806027
     -4.829830     57.302017     57.302017    114.604034
     -4.819820     57.260017     57.260017    114.520034
     -4.809810     54.358809     54.358809    108.717618
     -4.799800     49.337674     49.337674     98.675348
     -4.789790     43.292305     43.292305     86.584610
     -4.779780     37.302786     37.302786     74.605572
     -4.769770     32.148681     32.148681     64.297361
     -4.759760     28.196903     28.196903     56.393806
     -4.749750     25.450254     25.450254     50.900508
     -4.739740     23.681389     23.681389     47.362779
     -4.729730     22.571046     22.571046     45.142093
     -4.719720     21.802502     21.802502     43.605003
     -4.709710     21.104638     21.104638     42.209276
     -4.699700     20.263286     20.263286     40.526572
     -4.689690     19.129544     19.129544     38.259089
     -4.679680     17.646158     17.646158     35.292316
     -4.669670     15.893186     15.893186     31.786371
     -4.659660     14.131760     14.131760     28.263520
     -4.649650     12.812923     12.812923     25.625846
     -4.639640     12.524682     12.524682     25.049364
     -4.629630     13.870800     13.870800     27.741601
     -4.619620     17.299850     17.299850     34.599699
     -4.609610     22.926398     22.926398     45.852795
     -4.599600     30.404426     30.404426     60.808852
     -4.589590     38.917136     38.917136     77.834271
     -4.579580     47.322714     47.322714     94.645428
     -4.569570     54.437542     54.437542    108.875084
     -4.559560     59.368227     59.368227    118.736454
     -4.549550     61.763896     61.763896    123.527793
     -4.539540     61.882978     61.882978    123.765956
     -4.529530     60.448136     60.448136    120.896272
     -4.519520     58.355547     58.355547    116.711094
     -4.509510     56.360368     56.360368    112.720735
     -4.499499     54.856047     54.856047    109.712094
     -4.489489     53.813321     53.813321    107.626643
     -4.479479     52.876219     52.876219    105.752437
     -4.469469     51.556393     51.556393    103.112785
     -4.459459     49.441000     49.441000     98.882000
     -4.449449     46.338211     46.338211     92.676422
     -4.439439     42.321933     42.321933     84.643867
     -4.429429     37.685713     37.685713     75.371427
     -4.419419     32.851085     32.851085     65.702170
     -4.409409     28.279845     28.279845     56.559689
     -4.399399     24.413876     24.413876     48.827752
     -4.389389     21.632269     21.632269     43.264537
     -4.379379     20.201506     20.201506     40.403013
     -4.369369     20.211883     20.211883     40.423766
     -4.359359     21.526122     21.526122     43.052244
     -4.349349     23.783670     23.783670     47.567340
     -4.339339     26.486546     26.486546     52.973092
     -4.329329     29.148583     29.148583     58.297165
     -4.319319     31.449518     31.449518     62.899035
     -4.309309     33.326396     33.326396     66.652791
     -4.299299     34.961610     34.961610     69.923220
     -4.289289     36.671108     36.671108     73.342217
     -4.279279     38.733801     38.733801     77.467603
     -4.269269     41.222462     41.222462     82.444925
     -4.259259     43.899008     43.899008     87.798017
     -4.249249     46.225393     46.225393     92.450786
     -4.239239     47.510192     47.510192     95.020383
     -4.229229     47.157380     47.157380     94.314760
     -4.219219     44.924530     44.924530     89.849059
     -4.209209     41.070053     41.070053     82.140107
     -4.199199     36.304979     36.304979     72.609958
     -4.189189     31.557033     31.557033     63.114067
     -4.179179     27.652590     27.652590     55.305180
     -4.169169     25.063919     25.063919     50.127839
     -4.159159     23.829488     23.829488     47.658975
     -4.149149     23.661534     23.661534     47.323067
     -4.139139     24.165041     24.165041     48.330083
     -4.129129     25.050673     25.050673     50.101347
     -4.119119     26.241255     26.241255     52.482510
     -4.109109     27.828871     27.828871     55.657742
     -4.099099     29.911130     29.911130     59.822259
     -4.089089     32.395840     32.395840     64.791680
     -4.079079     34.888720     34.888720     69.777440
     -4.069069     36.748645     36.748645     73.497289
     -4.059059     37.311371     37.311371     74.622742
     -4.049049     36.183958     36.183958     72.367916
     -4.039039     33.459079     33.459079     66.918158
     -4.029029     29.732130     29.732130     59.464259
     -4.019019     25.909376     25.909376     51.818752
     -4.009009     22.906553     22.906553     45.813106
     -3.998999     21.384516     21.384516     42.769031
     -3.988989     21.628178     21.628178     43.256356
     -3.978979     23.582533     23.582533     47.165065
     -3.968969     26.979169     26.979169     53.958338
     -3.958959     31.464662     31.464662     62.929324
     -3.948949     36.678592     36.678592     73.357183
     -3.938939     42.284636     42.284636     84.569271
     -3.928929     47.987928     47.987928     95.975857
     -3.918919     53.558613     53.558613    107.117227
     -3.908909     58.846495     58.846495    117.692990
     -3.898899     63.753497     63.753497    127.506995
     -3.888889     68.151174     68.151174    136.302349
     -3.878879     71.776706     71.776706    143.553413
     -3.868869     74.176014     74.176014    148.352028
     -3.858859     74.755844     74.755844    149.511689
     -3.848849     72.955630     72.955630    145.911260
     -3.838839     68.482147     68.482147    136.964294
     -3.828829     61.505056     61.505056    123.010113
     -3.818819     52.716863     52.716863    105.433727
     -3.808809     43.215999     43.215999     86.431997
     -3.798799     34.247932     34.247932     68.495863
     -3.788789     26.897037     26.897037     53.794074
     -3.778779     21.834723     21.834723     43.669447
     -3.768769     19.197697     19.197697     38.395394
     -3.758759     18.617190     18.617190     37.234379
     -3.748749     19.372607     19.372607     38.745214
     -3.738739     20.616372     20.616372     41.232744
     -3.728729     21.610150     21.610150     43.220299
     -3.718719     21.918104     21.918104     43.836208
     -3.708709     21.513892     21.513892     43.027785
     -3.698699     20.773721     20.773721     41.547441
     -3.688689     20.350067     20.350067     40.700134
     -3.678679     20.950677     20.950677     41.901355
     -3.668669     23.080798     23.080798     46.161595
     -3.658659     26.831322     26.831322     53.662643
     -3.648649     31.794708     31.794708     63.589415
     -3.638639     37.152663     37.152663     74.305326
     -3.628629     41.911969     41.911969     83.823938
     -3.618619     45.198191     45.198191     90.396382
     -3.608609     46.490858     46.490858     92.981715
     -3.598599     45.717285     45.717285     91.434570
     -3.588589     43.195376     43.195376     86.390751
     -3.578579     39.481096     39.481096     78.962192
     -3.568569     35.196262     35.196262     70.392524
     -3.558559     30.888144     30.888144     61.776287
     -3.548549     26.937287     26.937287     53.874575
     -3.538539     23.513947     23.513947     47.027894
     -3.528529     20.586851     20.586851     41.173702
     -3.518519     17.988398     17.988398     35.976796
     -3.508509     15.522576     15.522576     31.045153
     -3.498498     13.076354     13.076354     26.152707
     -3.488488     10.686625     10.686625     21.373249
     -3.478478      8.535054      8.535054     17.070107
     -3.468468      6.879101      6.879101     13.758203
     -3.458458      5.954058      5.954058     11.908117
     -3.448448      5.884370      5.884370     11.768740
     -3.438438      6.629843      6.629843     13.259686
     -3.428428      7.978988      7.978988     15.957975
     -3.418418      9.594306      9.594306     19.188611
     -3.408408     11.106018     11.106018     22.212037
     -3.398398     12.233822     12.233822     24.467644
     -3.388388     12.895750     12.895750     25.791500
     -3.378378     13.256263     13.256263     26.512526
     -3.368368     13.685286     13.685286     27.370573
     -3.358358     14.639387     14.639387     29.278775
     -3.348348     16.510986     16.510986     33.021971
     -3.338338     19.498435     19.498435     38.996869
     -3.328328     23.528395     23.528395     47.056789
     -3.318318     28.234610     28.234610     56.469221
     -3.308308     32.988313     32.988313     65.976626
     -3.298298     36.986092     36.986092     73.972185
     -3.288288     39.406325     39.406325     78.812650
     -3.278278     39.620545     39.620545     79.241089
     -3.268268     37.398511     37.398511     74.797022
     -3.258258     33.015660     33.015660     66.031319
     -3.248248     27.197434     27.197434     54.394868
     -3.238238     20.912168     20.912168     41.824335
     -3.228228     15.102321     15.102321     30.204643
     -3.218218     10.467982     10.467982     20.935965
     -3.208208      7.373127      7.373127     14.746253
     -3.198198      5.870924      5.870924     11.741848
     -3.188188      5.792288      5.792288     11.584576
     -3.178178      6.839458      6.839458     13.678916
     -3.168168      8.660415      8.660415     17.320829
     -3.158158     10.913935     10.913935     21.827869
     -3.148148     13.340379     13.340379     26.680759
     -3.138138     15.829230     15.829230     31.658460
     -3.128128     18.446687     18.446687     36.893374
     -3.118118     21.386033     21.386033     42.772066
     -3.108108     24.839898     24.839898     49.679796
     -3.098098     28.845576     28.845576     57.691152
     -3.088088     33.183401     33.183401     66.366802
     -3.078078     37.388108     37.388108     74.776216
     -3.068068     40.872983     40.872983     81.745966
     -3.058058     43.105360     43.105360     86.210719
     -3.048048     43.749757     43.749757     87.499514
     -3.038038     42.723737     42.723737     85.447475
     -3.028028     40.167771     40.167771     80.335541
     -3.018018     36.374284     36.374284     72.748568
     -3.008008     31.726678     31.726678     63.453357
     -2.997998     26.671006     26.671006     53.342012
     -2.987988     21.708196     21.708196     43.416392
     -2.977978     17.378752     17.378752     34.757505
     -2.967968     14.220160     14.220160     28.440320
     -2.957958     12.696432     12.696432     25.392864
     -2.947948     13.113243     13.113243     26.226486
     -2.937938     15.536703     15.536703     31.073407
     -2.927928     19.735440     19.735440     39.470880
     -2.917918     25.169351     25.169351     50.338703
     -2.907908     31.048828     31.048828     62.097656
     -2.897898     36.474382     36.474382     72.948764
     -2.887888     40.635062     40.635062     81.270124
     -2.877878     43.007680     43.007680     86.015360
     -2.867868     43.481156     43.481156     86.962312
     -2.857858     42.349001     42.349001     84.698002
     -2.847848     40.165613     40.165613     80.331227
     -2.837838     37.524268     37.524268     75.048535
     -2.827828     34.852965     34.852965     69.705931
     -2.817818     32.315708     32.315708     64.631416
     -2.807808     29.853295     29.853295     59.706589
     -2.797798     27.326907     27.326907     54.653814
     -2.787788     24.677660     24.677660     49.355320
     -2.777778     22.013334     22.013334     44.026668
     -2.767768     19.580147     19.580147     39.160294
     -2.757758     17.645834     17.645834     35.291667
     -2.747748     16.371047     16.371047     32.742094
     -2.737738     15.749589     15.749589     31.499177
     -2.727728     15.651884     15.651884     31.303767
     -2.717718     15.938194     15.938194     31.876388
     -2.707708     16.561209     16.561209     33.122417
     -2.697698     17.583746     17.583746     35.167492
     -2.687688     19.095237     19.095237     38.190474
     -2.677678     21.083547     21.083547     42.167094
     -2.667668     23.356250     23.356250     46.712501
     -2.657658     25.578149     25.578149     51.156298
     -2.647648     27.414474     27.414474     54.828948
     -2.637638     28.694118     28.694118     57.388235
     -2.627628     29.488742     29.488742     58.977484
     -2.617618     30.057040     30.057040     60.114080
     -2.607608     30.691334     30.691334     61.382667
     -2.597598     31.562352     31.562352     63.124704
     -2.587588     32.646940     32.646940     65.293880
     -2.577578     33.757164     33.757164     67.514328
     -2.567568     34.623965     34.623965     69.247931
     -2.557558     34.973539     34.973539     69.947078
     -2.547548     34.571830     34.571830     69.143660
     -2.537538     33.258533     33.258533     66.517067
     -2.527528     31.001010     31.001010     62.002020
     -2.517518     27.964023     27.964023     55.928045
     -2.507508     24.549227     24.549227     49.098454
     -2.497497     21.351499     21.351499     42.702999
     -2.487487     19.018400     19.018400     38.036800
     -2.477477     18.056917     18.056917     36.113834
     -2.467467     18.668473     18.668473     37.336946
     -2.457457     20.686922     20.686922     41.373844
     -2.447447     23.650343     23.650343     47.300685
     -2.437437     26.978738     26.978738     53.957475
     -2.427427     30.182416     30.182416     60.364831
     -2.417417     33.010145     33.010145     66.020291
     -2.407407     35.470826     35.470826     70.941652
     -2.397397     37.719600     37.719600     75.439200
     -2.387387     39.864964     39.864964     79.729928
     -2.377377     41.796386     41.796386     83.592773
     -2.367367     43.128781     43.128781     86.257562
     -2.357357     43.307862     43.307862     86.615724
     -2.347347     41.840403     41.840403     83.680806
     -2.337337     38.545344     38.545344     77.090688
     -2.327327     33.704317     33.704317     67.408634
     -2.317317     28.037151     28.037151     56.074302
     -2.307307     22.513948     22.513948     45.027896
     -2.297297     18.089948     18.089948     36.179896
     -2.287287     15.471304     15.471304     30.942608
     -2.277277     14.985593     14.985593     29.971186
     -2.267267     16.571764     16.571764     33.143528
     -2.257257     19.858089     19.858089     39.716178
     -2.247247     24.280708     24.280708     48.561416
     -2.237237     29.202546     29.202546     58.405093
     -2.227227     34.007492     34.007492     68.014984
     -2.217217     38.159149     38.159149     76.318297
     -2.207207     41.227191     41.227191     82.454383
     -2.197197     42.897298     42.897298     85.794597
     -2.187187     42.986734     42.986734     85.973468
     -2.177177     41.478337     41.478337     82.956675
     -2.167167     38.560794     38.560794     77.121589
     -2.157157     34.637940     34.637940     69.275880
     -2.147147     30.268000     30.268000     60.536001
     -2.137137     26.026751     26.026751     52.053501
     -2.127127     22.340365     22.340365     44.680730
     -2.117117     19.366798     19.366798     38.733596
     -2.107107     16.989097     16.989097     33.978194
     -2.097097     14.924702     14.924702     29.849403
     -2.087087     12.890319     12.890319     25.780638
     -2.077077     10.735847     10.735847     21.471694
     -2.067067      8.487872      8.487872     16.975744
     -2.057057      6.300719      6.300719     12.601439
     -2.047047      4.360890      4.360890      8.721781
     -2.037037      2.802409      2.802409      5.604818
     -2.027027      1.668364      1.668364      3.336729
     -2.017017      0.920295      0.920295      1.840589
     -2.007007      0.474545      0.474545      0.949091
     -1.996997      0.241511      0.241511      0.483022
     -1.986987      0.153653      0.153653      0.307305
     -1.976977      0.180205      0.180205      0.360411
     -1.966967      0.332956      0.332956      0.665913
     -1.956957      0.666908      0.666908      1.333817
     -1.946947      1.275080      1.275080      2.550161
     -1.936937      2.272629      2.272629      4.545257
     -1.926927      3.765992      3.765992      7.531984
     -1.916917      5.809523      5.809523     11.619046
     -1.906907      8.362502      8.362502     16.725005
     -1.896897     11.266908     11.266908     22.533817
     -1.886887     14.263712     14.263712     28.527424
     -1.876877     17.051290     17.051290     34.102579
     -1.866867     19.370188     19.370188     38.740376
     -1.856857     21.084248     21.084248     42.168496
     -1.846847     22.225559     22.225559     44.451118
     -1.836837     22.979798     22.979798     45.959596
     -1.826827     23.606569     23.606569     47.213138
     -1.816817     24.314442     24.314442     48.628884
     -1.806807     25.137521     25.137521     50.275042
     -1.796797     25.875126     25.875126     51.750253
     -1.786787     26.140249     26.140249     52.280499
     -1.776777     25.511992     25.511992     51.023984
     -1.766767     23.726668     23.726668     47.453336
     -1.756757     20.812637     20.812637     41.625275
     -1.746747     17.100670     17.100670     34.201341
     -1.736737     13.110202     13.110202     26.220403
     -1.726727      9.376959      9.376959     18.753917
     -1.716717      6.308197      6.308197     12.616394
     -1.706707      4.121294      4.121294      8.242588
     -1.696697      2.866841      2.866841      5.733682
     -1.686687      2.494854      2.494854      4.989707
     -1.676677      2.912565      2.912565      5.825129
     -1.666667      4.002011      4.002011      8.004022
     -1.656657      5.598714      5.598714     11.197427
     -1.646647      7.460820      7.460820     14.921640
     -1.636637      9.267512      9.267512     18.535025
     -1.626627     10.671281     10.671281     21.342561
