# EIG2DOS: Utility for SIESTA to obtain the electronic density of states
#  E. Artacho, Apr 1999, A. Garcia, Apr 2012
#  Nick R. Papior, Feb 2017
# ------------------------------------------
# Eigenvalues calculated from a non-polarized calculation
# Eigenvalues read from siesta.EIG
# Kpoint weights read from siesta.KP
# Using smearing parameter:   0.0500
# Using 1000 points in the energy range
# Selected bands: 1 to: 2981
# Emin, Emax in file for selected band(s):    -27.1085679    218.3381760
# Nbands, Nspin, Nk   =   2981     1     1
# E_F                 =    -4.2687 eV --> (shifted to ZERO)
# Broadening          =     0.0500 eV
#
#        E            N(up)  (=)   N(down)         Ntot
     -5.000000     36.465344     36.465344     72.930688
     -4.989990     39.250347     39.250347     78.500694
     -4.979980     41.371750     41.371750     82.743501
     -4.969970     42.483481     42.483481     84.966963
     -4.959960     42.398947     42.398947     84.797894
     -4.949950     41.128984     41.128984     82.257969
     -4.939940     38.884474     38.884474     77.768948
     -4.929930     36.054816     36.054816     72.109631
     -4.919920     33.175358     33.175358     66.350716
     -4.909910     30.885208     30.885208     61.770417
     -4.899900     29.858164     29.858164     59.716328
     -4.889890     30.680587     30.680587     61.361174
     -4.879880     33.669807     33.669807     67.339615
     -4.869870     38.677600     38.677600     77.355200
     -4.859860     44.976631     44.976631     89.953262
     -4.849850     51.335060     51.335060    102.670120
     -4.839840     56.315623     56.315623    112.631246
     -4.829830     58.714785     58.714785    117.429570
     -4.819820     57.959332     57.959332    115.918663
     -4.809810     54.276264     54.276264    108.552528
     -4.799800     48.560384     48.560384     97.120768
     -4.789790     42.017612     42.017612     84.035223
     -4.779780     35.763086     35.763086     71.526172
     -4.769770     30.544126     30.544126     61.088252
     -4.759760     26.661357     26.661357     53.322715
     -4.749750     24.052215     24.052215     48.104431
     -4.739740     22.444808     22.444808     44.889616
     -4.729730     21.499120     21.499120     42.998240
     -4.719720     20.895227     20.895227     41.790454
     -4.709710     20.368217     20.368217     40.736433
     -4.699700     19.711818     19.711818     39.423636
     -4.689690     18.779318     18.779318     37.558637
     -4.679680     17.504335     17.504335     35.008670
     -4.669670     15.946038     15.946038     31.892075
     -4.659660     14.339388     14.339388     28.678775
     -4.649650     13.114468     13.114468     26.228936
     -4.639640     12.851358     12.851358     25.702716
     -4.629630     14.157688     14.157688     28.315375
     -4.619620     17.485409     17.485409     34.970817
     -4.609610     22.932722     22.932722     45.865444
     -4.599600     30.100514     30.100514     60.201028
     -4.589590     38.079656     38.079656     76.159312
     -4.579580     45.619749     45.619749     91.239498
     -4.569570     51.464107     51.464107    102.928215
     -4.559560     54.750771     54.750771    109.501542
     -4.549550     55.322260     55.322260    110.644520
     -4.539540     53.801091     53.801091    107.602181
     -4.529530     51.378550     51.378550    102.757099
     -4.519520     49.388303     49.388303     98.776605
     -4.509510     48.830775     48.830775     97.661549
     -4.499499     50.033273     50.033273    100.066546
     -4.489489     52.569542     52.569542    105.139083
     -4.479479     55.452880     55.452880    110.905759
     -4.469469     57.508985     57.508985    115.017971
     -4.459459     57.773782     57.773782    115.547564
     -4.449449     55.770456     55.770456    111.540912
     -4.439439     51.589300     51.589300    103.178600
     -4.429429     45.785657     45.785657     91.571315
     -4.419419     39.178297     39.178297     78.356594
     -4.409409     32.643268     32.643268     65.286535
     -4.399399     26.961608     26.961608     53.923216
     -4.389389     22.727009     22.727009     45.454017
     -4.379379     20.289359     20.289359     40.578718
     -4.369369     19.716885     19.716885     39.433769
     -4.359359     20.787003     20.787003     41.574006
     -4.349349     23.032873     23.032873     46.065746
     -4.339339     25.859037     25.859037     51.718074
     -4.329329     28.702720     28.702720     57.405440
     -4.319319     31.184793     31.184793     62.369586
     -4.309309     33.191369     33.191369     66.382739
     -4.299299     34.856559     34.856559     69.713118
     -4.289289     36.458881     36.458881     72.917762
     -4.279279     38.272978     38.272978     76.545956
     -4.269269     40.424971     40.424971     80.849942
     -4.259259     42.793601     42.793601     85.587201
     -4.249249     44.992166     44.992166     89.984333
     -4.239239     46.455193     46.455193     92.910386
     -4.229229     46.623995     46.623995     93.247991
     -4.219219     45.174859     45.174859     90.349718
     -4.209209     42.189778     42.189778     84.379555
     -4.199199     38.174059     38.174059     76.348118
     -4.189189     33.893320     33.893320     67.786641
     -4.179179     30.100150     30.100150     60.200299
     -4.169169     27.283831     27.283831     54.567663
     -4.159159     25.561694     25.561694     51.123388
     -4.149149     24.749129     24.749129     49.498259
     -4.139139     24.551083     24.551083     49.102165
     -4.129129     24.763795     24.763795     49.527590
     -4.119119     25.381643     25.381643     50.763286
     -4.109109     26.556918     26.556918     53.113836
     -4.099099     28.433847     28.433847     56.867694
     -4.089089     30.944684     30.944684     61.889368
     -4.079079     33.687264     33.687264     67.374529
     -4.069069     35.976229     35.976229     71.952457
     -4.059059     37.073922     37.073922     74.147843
     -4.049049     36.501403     36.501403     73.002806
     -4.039039     34.270662     34.270662     68.541323
     -4.029029     30.912387     30.912387     61.824773
     -4.019019     27.285445     27.285445     54.570889
     -4.009009     24.273606     24.273606     48.547213
     -3.998999     22.524685     22.524685     45.049370
     -3.988989     22.340404     22.340404     44.680808
     -3.978979     23.722680     23.722680     47.445360
     -3.968969     26.497308     26.497308     52.994616
     -3.958959     30.420564     30.420564     60.841127
     -3.948949     35.223708     35.223708     70.447415
     -3.938939     40.615342     40.615342     81.230684
     -3.928929     46.289714     46.289714     92.579428
     -3.918919     51.964911     51.964911    103.929821
     -3.908909     57.427435     57.427435    114.854870
     -3.898899     62.534619     62.534619    125.069238
     -3.888889     67.147994     67.147994    134.295988
     -3.878879     71.024331     71.024331    142.048663
     -3.868869     73.736405     73.736405    147.472810
     -3.858859     74.697617     74.697617    149.395235
     -3.848849     73.316713     73.316713    146.633427
     -3.838839     69.235928     69.235928    138.471855
     -3.828829     62.549522     62.549522    125.099043
     -3.818819     53.893996     53.893996    107.787992
     -3.808809     44.352803     44.352803     88.705605
     -3.798799     35.200622     35.200622     70.401243
     -3.788789     27.581090     27.581090     55.162180
     -3.778779     22.233026     22.233026     44.466052
     -3.768769     19.349704     19.349704     38.699409
     -3.758759     18.597823     18.597823     37.195647
     -3.748749     19.269416     19.269416     38.538832
     -3.738739     20.510031     20.510031     41.020062
     -3.728729     21.560160     21.560160     43.120320
     -3.718719     21.954086     21.954086     43.908172
     -3.708709     21.632706     21.632706     43.265412
     -3.698699     20.942606     20.942606     41.885211
     -3.688689     20.515492     20.515492     41.030984
     -3.678679     21.051717     21.051717     42.103434
     -3.668669     23.064906     23.064906     46.129811
     -3.658659     26.669480     26.669480     53.338960
     -3.648649     31.492275     31.492275     62.984549
     -3.638639     36.752281     36.752281     73.504563
     -3.628629     41.486346     41.486346     82.972691
     -3.618619     44.833552     44.833552     89.667103
     -3.608609     46.265442     46.265442     92.530883
     -3.598599     45.681554     45.681554     91.363107
     -3.588589     43.360316     43.360316     86.720631
     -3.578579     39.818039     39.818039     79.636077
     -3.568569     35.647432     35.647432     71.294864
     -3.558559     31.383526     31.383526     62.767051
     -3.548549     27.411848     27.411848     54.823697
     -3.538539     23.920152     23.920152     47.840303
     -3.528529     20.900047     20.900047     41.800093
     -3.518519     18.205613     18.205613     36.411225
     -3.508509     15.657211     15.657211     31.314422
     -3.498498     13.151629     13.151629     26.303258
     -3.488488     10.729771     10.729771     21.459542
     -3.478478      8.572898      8.572898     17.145797
     -3.468468      6.934626      6.934626     13.869252
     -3.458458      6.043078      6.043078     12.086156
     -3.448448      6.011911      6.011911     12.023823
     -3.438438      6.786880      6.786880     13.573760
     -3.428428      8.141291      8.141291     16.282581
     -3.418418      9.725343      9.725343     19.450686
     -3.408408     11.164569     11.164569     22.329138
     -3.398398     12.184707     12.184707     24.369414
     -3.388388     12.720329     12.720329     25.440659
     -3.378378     12.959242     12.959242     25.918484
     -3.368368     13.295849     13.295849     26.591699
     -3.358358     14.206477     14.206477     28.412955
     -3.348348     16.093628     16.093628     32.187256
     -3.338338     19.152741     19.152741     38.305481
     -3.328328     23.294122     23.294122     46.588245
     -3.318318     28.125694     28.125694     56.251388
     -3.308308     32.991749     32.991749     65.983498
     -3.298298     37.070385     37.070385     74.140770
     -3.288288     39.535484     39.535484     79.070967
     -3.278278     39.765964     39.765964     79.531928
     -3.268268     37.541994     37.541994     75.083988
     -3.258258     33.141645     33.141645     66.283289
     -3.248248     27.277317     27.277317     54.554633
     -3.238238     20.885179     20.885179     41.770358
     -3.228228     14.856418     14.856418     29.712835
     -3.218218      9.824535      9.824535     19.649070
     -3.208208      6.083814      6.083814     12.167627
     -3.198198      3.641752      3.641752      7.283504
     -3.188188      2.350237      2.350237      4.700473
     -3.178178      2.043467      2.043467      4.086935
     -3.168168      2.629818      2.629818      5.259635
     -3.158158      4.117209      4.117209      8.234418
     -3.148148      6.578492      6.578492     13.156983
     -3.138138     10.079069     10.079069     20.158138
     -3.128128     14.595746     14.595746     29.191491
     -3.118118     19.955789     19.955789     39.911578
     -3.108108     25.818260     25.818260     51.636520
     -3.098098     31.706569     31.706569     63.413138
     -3.088088     37.085398     37.085398     74.170796
     -3.078078     41.461145     41.461145     82.922291
     -3.068068     44.475869     44.475869     88.951738
     -3.058058     45.963196     45.963196     91.926392
     -3.048048     45.945081     45.945081     91.890161
     -3.038038     44.572680     44.572680     89.145361
     -3.028028     42.044561     42.044561     84.089121
     -3.018018     38.551231     38.551231     77.102462
     -3.008008     34.280013     34.280013     68.560027
     -2.997998     29.473311     29.473311     58.946621
     -2.987988     24.494487     24.494487     48.988973
     -2.977978     19.847887     19.847887     39.695774
     -2.967968     16.127358     16.127358     32.254716
     -2.957958     13.907548     13.907548     27.815095
     -2.947948     13.615794     13.615794     27.231587
     -2.937938     15.420985     15.420985     30.841970
     -2.927928     19.163005     19.163005     38.326010
     -2.917918     24.339082     24.339082     48.678164
     -2.907908     30.162673     30.162673     60.325347
     -2.897898     35.702895     35.702895     71.405790
     -2.887888     40.087113     40.087113     80.174226
     -2.877878     42.713485     42.713485     85.426970
     -2.867868     43.397305     43.397305     86.794609
     -2.857858     42.387068     42.387068     84.774136
     -2.847848     40.235560     40.235560     80.471120
     -2.837838     37.575916     37.575916     75.151832
     -2.827828     34.898032     34.898032     69.796064
     -2.817818     32.420519     32.420519     64.841038
     -2.807808     30.105396     30.105396     60.210793
     -2.797798     27.791068     27.791068     55.582137
     -2.787788     25.361804     25.361804     50.723609
     -2.777778     22.859582     22.859582     45.719164
     -2.767768     20.483093     20.483093     40.966186
     -2.757758     18.486572     18.486572     36.973144
     -2.747748     17.048952     17.048952     34.097903
     -2.737738     16.197845     16.197845     32.395690
     -2.727728     15.834396     15.834396     31.668791
     -2.717718     15.837429     15.837429     31.674859
     -2.707708     16.171402     16.171402     32.342803
     -2.697698     16.918552     16.918552     33.837104
     -2.687688     18.206528     18.206528     36.413056
     -2.677678     20.076554     20.076554     40.153108
     -2.667668     22.384033     22.384033     44.768066
     -2.657658     24.808588     24.808588     49.617175
     -2.647648     26.980286     26.980286     53.960572
     -2.637638     28.649302     28.649302     57.298603
     -2.627628     29.793491     29.793491     59.586981
     -2.617618     30.597623     30.597623     61.195247
     -2.607608     31.322517     31.322517     62.645034
     -2.597598     32.150884     32.150884     64.301768
     -2.587588     33.100313     33.100313     66.200626
     -2.577578     34.034976     34.034976     68.069952
     -2.567568     34.737942     34.737942     69.475885
     -2.557558     34.981215     34.981215     69.962430
     -2.547548     34.562947     34.562947     69.125894
     -2.537538     33.331440     33.331440     66.662880
     -2.527528     31.231981     31.231981     62.463963
     -2.517518     28.380169     28.380169     56.760337
     -2.507508     25.117269     25.117269     50.234538
     -2.497497     21.987500     21.987500     43.975000
     -2.487487     19.612668     19.612668     39.225337
     -2.477477     18.501817     18.501817     37.003633
     -2.467467     18.878452     18.878452     37.756904
     -2.457457     20.607013     20.607013     41.214025
     -2.447447     23.255931     23.255931     46.511863
     -2.437437     26.271949     26.271949     52.543899
     -2.427427     29.189454     29.189454     58.378908
     -2.417417     31.781754     31.781754     63.563508
     -2.407407     34.086050     34.086050     68.172099
     -2.397397     36.290763     36.290763     72.581525
     -2.387387     38.538743     38.538743     77.077487
     -2.377377     40.743591     40.743591     81.487182
     -2.367367     42.517225     42.517225     85.034449
     -2.357357     43.260484     43.260484     86.520968
     -2.347347     42.391689     42.391689     84.783378
     -2.337337     39.615829     39.615829     79.231659
     -2.327327     35.108883     35.108883     70.217767
     -2.317317     29.528155     29.528155     59.056310
     -2.307307     23.843483     23.843483     47.686967
     -2.297297     19.067184     19.067184     38.134368
     -2.287287     15.995391     15.995391     31.990782
     -2.277277     15.047687     15.047687     30.095373
     -2.267267     16.232801     16.232801     32.465602
     -2.257257     19.216077     19.216077     38.432153
     -2.247247     23.441594     23.441594     46.883189
     -2.237237     28.264242     28.264242     56.528485
     -2.227227     33.059279     33.059279     66.118558
     -2.217217     37.290671     37.290671     74.581342
     -2.207207     40.535699     40.535699     81.071398
     -2.197197     42.482384     42.482384     84.964767
     -2.187187     42.929409     42.929409     85.858818
     -2.177177     41.812213     41.812213     83.624426
     -2.167167     39.250713     39.250713     78.501426
     -2.157157     35.580351     35.580351     71.160701
     -2.147147     31.317398     31.317398     62.634797
     -2.137137     27.038897     27.038897     54.077795
     -2.127127     23.213643     23.213643     46.427285
     -2.117117     20.063706     20.063706     40.127413
     -2.107107     17.530357     17.530357     35.060715
     -2.097097     15.362459     15.362459     30.724917
     -2.087087     13.276199     13.276199     26.552398
     -2.077077     11.099255     11.099255     22.198509
     -2.067067      8.831491      8.831491     17.662982
     -2.057057      6.609967      6.609967     13.219934
     -2.047047      4.618237      4.618237      9.236474
     -2.037037      2.998110      2.998110      5.996220
     -2.027027      1.803943      1.803943      3.607887
     -2.017017      1.006028      1.006028      2.012056
     -2.007007      0.524555      0.524555      1.049109
     -1.996997      0.269657      0.269657      0.539313
     -1.986987      0.171674      0.171674      0.343347
     -1.976977      0.197920      0.197920      0.395840
     -1.966967      0.359447      0.359447      0.718895
     -1.956957      0.711366      0.711366      1.422732
     -1.946947      1.346071      1.346071      2.692141
     -1.936937      2.375002      2.375002      4.750004
     -1.926927      3.895625      3.895625      7.791251
     -1.916917      5.947451      5.947451     11.894901
     -1.906907      8.470973      8.470973     16.941946
     -1.896897     11.289166     11.289166     22.578333
     -1.886887     14.126283     14.126283     28.252565
     -1.876877     16.663667     16.663667     33.327334
     -1.866867     18.615800     18.615800     37.231600
     -1.856857     19.802103     19.802103     39.604205
     -1.846847     20.194016     20.194016     40.388031
     -1.836837     19.926001     19.926001     39.852002
     -1.826827     19.266286     19.266286     38.532572
     -1.816817     18.549022     18.549022     37.098044
     -1.806807     18.079987     18.079987     36.159975
     -1.796797     18.042766     18.042766     36.085533
     -1.786787     18.440421     18.440421     36.880843
     -1.776777     19.097238     19.097238     38.194476
     -1.766767     19.718732     19.718732     39.437465
     -1.756757     19.983184     19.983184     39.966369
     -1.746747     19.630970     19.630970     39.261939
     -1.736737     18.529010     18.529010     37.058020
     -1.726727     16.702751     16.702751     33.405503
     -1.716717     14.335565     14.335565     28.671129
     -1.706707     11.736493     11.736493     23.472986
     -1.696697      9.280178      9.280178     18.560357
     -1.686687      7.330179      7.330179     14.660357
     -1.676677      6.162832      6.162832     12.325663
     -1.666667      5.907565      5.907565     11.815130
     -1.656657      6.513701      6.513701     13.027402
     -1.646647      7.750384      7.750384     15.500769
     -1.636637      9.246610      9.246610     18.493220
     -1.626627     10.574917     10.574917     21.149835
