# EIG2DOS: Utility for SIESTA to obtain the electronic density of states
#  E. Artacho, Apr 1999, A. Garcia, Apr 2012
#  Nick R. Papior, Feb 2017
# ------------------------------------------
# Eigenvalues calculated from a non-polarized calculation
# Eigenvalues read from siesta.EIG
# Kpoint weights read from siesta.KP
# Using smearing parameter:   0.0500
# Using 1000 points in the energy range
# Selected bands: 1 to: 2981
# Emin, Emax in file for selected band(s):    -27.0449918    218.3168740
# Nbands, Nspin, Nk   =   2981     1     1
# E_F                 =    -4.2917 eV --> (shifted to ZERO)
# Broadening          =     0.0500 eV
#
#        E            N(up)  (=)   N(down)         Ntot
     -5.000000     46.464175     46.464175     92.928350
     -4.989990     49.312134     49.312134     98.624267
     -4.979980     50.558716     50.558716    101.117433
     -4.969970     50.189646     50.189646    100.379291
     -4.959960     48.399287     48.399287     96.798574
     -4.949950     45.521135     45.521135     91.042270
     -4.939940     41.960082     41.960082     83.920163
     -4.929930     38.157585     38.157585     76.315170
     -4.919920     34.594176     34.594176     69.188353
     -4.909910     31.805131     31.805131     63.610261
     -4.899900     30.366796     30.366796     60.733591
     -4.889890     30.812091     30.812091     61.624182
     -4.879880     33.462600     33.462600     66.925199
     -4.869870     38.220753     38.220753     76.441506
     -4.859860     44.424119     44.424119     88.848238
     -4.849850     50.879119     50.879119    101.758237
     -4.839840     56.129616     56.129616    112.259232
     -4.829830     58.893039     58.893039    117.786077
     -4.819820     58.484852     58.484852    116.969703
     -4.809810     55.032820     55.032820    110.065641
     -4.799800     49.381575     49.381575     98.763150
     -4.789790     42.747622     42.747622     85.495245
     -4.779780     36.302472     36.302472     72.604944
     -4.769770     30.867039     30.867039     61.734077
     -4.759760     26.806765     26.806765     53.613531
     -4.749750     24.100322     24.100322     48.200644
     -4.739740     22.489179     22.489179     44.978358
     -4.729730     21.620676     21.620676     43.241352
     -4.719720     21.141937     21.141937     42.283875
     -4.709710     20.744466     20.744466     41.488931
     -4.699700     20.180382     20.180382     40.360765
     -4.689690     19.274451     19.274451     38.548902
     -4.679680     17.948929     17.948929     35.897857
     -4.669670     16.263863     16.263863     32.527726
     -4.659660     14.457366     14.457366     28.914732
     -4.649650     12.957828     12.957828     25.915657
     -4.639640     12.341487     12.341487     24.682975
     -4.629630     13.223872     13.223872     26.447744
     -4.619620     16.095301     16.095301     32.190602
     -4.609610     21.133637     21.133637     42.267275
     -4.599600     28.050131     28.050131     56.100262
     -4.589590     36.039118     36.039118     72.078237
     -4.579580     43.891928     43.891928     87.783856
     -4.569570     50.284353     50.284353    100.568706
     -4.559560     54.165505     54.165505    108.331010
     -4.549550     55.105487     55.105487    110.210974
     -4.539540     53.450112     53.450112    106.900224
     -4.529530     50.201975     50.201975    100.403949
     -4.519520     46.667135     46.667135     93.334270
     -4.509510     44.011084     44.011084     88.022168
     -4.499499     42.901223     42.901223     85.802447
     -4.489489     43.363035     43.363035     86.726069
     -4.479479     44.876140     44.876140     89.752279
     -4.469469     46.638245     46.638245     93.276489
     -4.459459     47.872632     47.872632     95.745264
     -4.449449     48.062141     48.062141     96.124282
     -4.439439     47.044532     47.044532     94.089063
     -4.429429     44.971066     44.971066     89.942132
     -4.419419     42.182772     42.182772     84.365544
     -4.409409     39.077762     39.077762     78.155525
     -4.399399     36.024145     36.024145     72.048291
     -4.389389     33.330072     33.330072     66.660143
     -4.379379     31.242644     31.242644     62.485288
     -4.369369     29.936764     29.936764     59.873528
     -4.359359     29.479340     29.479340     58.958679
     -4.349349     29.792280     29.792280     59.584560
     -4.339339     30.656073     30.656073     61.312147
     -4.329329     31.776802     31.776802     63.553604
     -4.319319     32.896755     32.896755     65.793510
     -4.309309     33.895802     33.895802     67.791603
     -4.299299     34.831820     34.831820     69.663640
     -4.289289     35.899916     35.899916     71.799832
     -4.279279     37.327233     37.327233     74.654465
     -4.269269     39.242163     39.242163     78.484326
     -4.259259     41.562408     41.562408     83.124817
     -4.249249     43.945129     43.945129     87.890258
     -4.239239     45.835177     45.835177     91.670354
     -4.229229     46.621653     46.621653     93.243307
     -4.219219     45.862810     45.862810     91.725620
     -4.209209     43.486392     43.486392     86.972783
     -4.199199     39.859554     39.859554     79.719107
     -4.189189     35.675835     35.675835     71.351670
     -4.179179     31.703842     31.703842     63.407683
     -4.169169     28.520915     28.520915     57.041830
     -4.159159     26.361109     26.361109     52.722218
     -4.149149     25.137812     25.137812     50.275624
     -4.139139     24.605237     24.605237     49.210473
     -4.129129     24.557535     24.557535     49.115069
     -4.119119     24.957446     24.957446     49.914892
     -4.109109     25.930043     25.930043     51.860087
     -4.099099     27.625908     27.625908     55.251816
     -4.089089     30.025547     30.025547     60.051093
     -4.079079     32.796974     32.796974     65.593947
     -4.069069     35.306301     35.306301     70.612603
     -4.059059     36.809227     36.809227     73.618454
     -4.049049     36.748425     36.748425     73.496851
     -4.039039     35.009010     35.009010     70.018020
     -4.029029     31.995150     31.995150     63.990300
     -4.019019     28.487128     28.487128     56.974256
     -4.009009     25.359821     25.359821     50.719642
     -3.998999     23.311001     23.311001     46.622003
     -3.988989     22.720456     22.720456     45.440912
     -3.978979     23.665979     23.665979     47.331959
     -3.968969     26.030651     26.030651     52.061302
     -3.958959     29.607001     29.607001     59.214002
     -3.948949     34.144492     34.144492     68.288983
     -3.938939     39.353018     39.353018     78.706037
     -3.928929     44.911073     44.911073     89.822145
     -3.918919     50.509183     50.509183    101.018366
     -3.908909     55.910079     55.910079    111.820158
     -3.898899     60.972937     60.972937    121.945873
     -3.888889     65.601328     65.601328    131.202656
     -3.878879     69.626893     69.626893    139.253787
     -3.868869     72.696686     72.696686    145.393373
     -3.858859     74.251424     74.251424    148.502847
     -3.848849     73.646193     73.646193    147.292386
     -3.838839     70.389480     70.389480    140.778960
     -3.828829     64.401868     64.401868    128.803735
     -3.818819     56.167737     56.167737    112.335473
     -3.808809     46.693104     46.693104     93.386209
     -3.798799     37.271180     37.271180     74.542361
     -3.788789     29.144639     29.144639     58.289278
     -3.778779     23.192554     23.192554     46.385107
     -3.768769     19.746198     19.746198     39.492397
     -3.758759     18.575162     18.575162     37.150324
     -3.748749     19.022289     19.022289     38.044579
     -3.738739     20.229131     20.229131     40.458262
     -3.728729     21.385232     21.385232     42.770464
     -3.718719     21.942767     21.942767     43.885534
     -3.708709     21.751038     21.751038     43.502075
     -3.698699     21.080192     21.080192     42.160385
     -3.688689     20.523291     20.523291     41.046583
     -3.678679     20.793799     20.793799     41.587598
     -3.668669     22.469237     22.469237     44.938473
     -3.658659     25.760214     25.760214     51.520428
     -3.648649     30.390325     30.390325     60.780650
     -3.638639     35.642492     35.642492     71.284984
     -3.628629     40.563902     40.563902     81.127804
     -3.618619     44.251439     44.251439     88.502877
     -3.608609     46.102647     46.102647     92.205294
     -3.598599     45.939305     45.939305     91.878610
     -3.588589     43.979367     43.979367     87.958733
     -3.578579     40.703262     40.703262     81.406524
     -3.568569     36.689438     36.689438     73.378876
     -3.558559     32.475116     32.475116     64.950233
     -3.548549     28.461736     28.461736     56.923472
     -3.538539     24.864614     24.864614     49.729227
     -3.528529     21.709045     21.709045     43.418089
     -3.518519     18.879217     18.879217     37.758433
     -3.508509     16.212567     16.212567     32.425135
     -3.498498     13.606380     13.606380     27.212761
     -3.488488     11.089868     11.089868     22.179736
     -3.478478      8.829770      8.829770     17.659540
     -3.468468      7.071499      7.071499     14.142998
     -3.458458      6.046516      6.046516     12.093032
     -3.448448      5.883715      5.883715     11.767431
     -3.438438      6.552107      6.552107     13.104214
     -3.428428      7.848952      7.848952     15.697903
     -3.418418      9.439550      9.439550     18.879100
     -3.408408     10.946724     10.946724     21.893447
     -3.398398     12.071600     12.071600     24.143200
     -3.388388     12.706352     12.706352     25.412705
     -3.378378     12.990438     12.990438     25.980876
     -3.368368     13.278856     13.278856     26.557711
     -3.358358     14.029567     14.029567     28.059134
     -3.348348     15.654058     15.654058     31.308116
     -3.338338     18.385513     18.385513     36.771026
     -3.328328     22.198998     22.198998     44.397997
     -3.318318     26.787774     26.787774     53.575547
     -3.308308     31.586144     31.586144     63.172288
     -3.298298     35.839276     35.839276     71.678551
     -3.288288     38.733097     38.733097     77.466194
     -3.278278     39.583894     39.583894     79.167789
     -3.268268     38.043757     38.043757     76.087513
     -3.258258     34.237707     34.237707     68.475415
     -3.248248     28.754609     28.754609     57.509218
     -3.238238     22.477451     22.477451     44.954901
     -3.228228     16.321529     16.321529     32.643059
     -3.218218     10.994055     10.994055     21.988110
     -3.208208      6.867196      6.867196     13.734391
     -3.198198      3.989212      3.989212      7.978424
     -3.188188      2.193282      2.193282      4.386563
     -3.178178      1.236677      1.236677      2.473354
     -3.168168      0.916266      0.916266      1.832532
     -3.158158      1.137005      1.137005      2.274009
     -3.148148      1.933927      1.933927      3.867854
     -3.138138      3.455470      3.455470      6.910941
     -3.128128      5.912734      5.912734     11.825467
     -3.118118      9.497533      9.497533     18.995065
     -3.108108     14.279945     14.279945     28.559889
     -3.098098     20.111646     20.111646     40.223291
     -3.088088     26.573949     26.573949     53.147898
     -3.078078     33.006012     33.006012     66.012025
     -3.068068     38.623399     38.623399     77.246799
     -3.058058     42.698343     42.698343     85.396685
     -3.048048     44.740814     44.740814     89.481629
     -3.038038     44.614410     44.614410     89.228819
     -3.028028     42.549018     42.549018     85.098037
     -3.018018     39.058212     39.058212     78.116424
     -3.008008     34.805806     34.805806     69.611613
     -2.997998     30.473298     30.473298     60.946596
     -2.987988     26.660253     26.660253     53.320506
     -2.977978     23.824010     23.824010     47.648019
     -2.967968     22.252269     22.252269     44.504538
     -2.957958     22.063057     22.063057     44.126115
     -2.947948     23.227173     23.227173     46.454346
     -2.937938     25.599901     25.599901     51.199803
     -2.927928     28.940669     28.940669     57.881339
     -2.917918     32.908271     32.908271     65.816542
     -2.907908     37.047257     37.047257     74.094514
     -2.897898     40.805903     40.805903     81.611806
     -2.887888     43.620057     43.620057     87.240114
     -2.877878     45.054973     45.054973     90.109946
     -2.867868     44.946462     44.946462     89.892925
     -2.857858     43.463098     43.463098     86.926196
     -2.847848     41.042527     41.042527     82.085053
     -2.837838     38.220768     38.220768     76.441537
     -2.827828     35.432986     35.432986     70.865973
     -2.817818     32.880959     32.880959     65.761917
     -2.807808     30.526581     30.526581     61.053162
     -2.797798     28.203250     28.203250     56.406501
     -2.787788     25.775847     25.775847     51.551695
     -2.777778     23.258534     23.258534     46.517068
     -2.767768     20.828523     20.828523     41.657046
     -2.757758     18.736512     18.736512     37.473024
     -2.747748     17.174890     17.174890     34.349781
     -2.737738     16.188000     16.188000     32.376000
     -2.727728     15.680287     15.680287     31.360574
     -2.717718     15.514426     15.514426     31.028853
     -2.707708     15.631691     15.631691     31.263382
     -2.697698     16.109894     16.109894     32.219787
     -2.687688     17.113325     17.113325     34.226649
     -2.677678     18.761089     18.761089     37.522177
     -2.667668     20.998548     20.998548     41.997097
     -2.657658     23.561015     23.561015     47.122029
     -2.647648     26.063090     26.063090     52.126181
     -2.637638     28.165672     28.165672     56.331344
     -2.627628     29.720171     29.720171     59.440342
     -2.617618     30.803659     30.803659     61.607318
     -2.607608     31.630888     31.630888     63.261776
     -2.597598     32.407999     32.407999     64.815999
     -2.587588     33.221018     33.221018     66.442035
     -2.577578     34.012725     34.012725     68.025449
     -2.567568     34.631311     34.631311     69.262621
     -2.557558     34.892793     34.892793     69.785585
     -2.547548     34.616173     34.616173     69.232346
     -2.537538     33.640469     33.640469     67.280938
     -2.527528     31.862271     31.862271     63.724543
     -2.517518     29.310934     29.310934     58.621868
     -2.507508     26.226771     26.226771     52.453543
     -2.497497     23.076463     23.076463     46.152926
     -2.487487     20.461872     20.461872     40.923744
     -2.477477     18.940689     18.940689     37.881377
     -2.467467     18.835240     18.835240     37.670479
     -2.457457     20.120841     20.120841     40.241682
     -2.447447     22.449582     22.449582     44.899164
     -2.437437     25.301108     25.301108     50.602216
     -2.427427     28.191961     28.191961     56.383921
     -2.417417     30.847099     30.847099     61.694197
     -2.407407     33.253915     33.253915     66.507830
     -2.397397     35.573857     35.573857     71.147714
     -2.387387     37.955455     37.955455     75.910910
     -2.377377     40.343261     40.343261     80.686521
     -2.367367     42.384688     42.384688     84.769376
     -2.357357     43.495048     43.495048     86.990095
     -2.347347     43.066776     43.066776     86.133552
     -2.337337     40.735979     40.735979     81.471959
     -2.327327     36.585230     36.585230     73.170459
     -2.317317     31.187264     31.187264     62.374529
     -2.307307     25.468648     25.468648     50.937296
     -2.297297     20.454677     20.454677     40.909355
     -2.287287     17.001362     17.001362     34.002724
     -2.277277     15.608262     15.608262     31.216525
     -2.267267     16.355242     16.355242     32.710484
     -2.257257     18.952649     18.952649     37.905299
     -2.247247     22.863152     22.863152     45.726304
     -2.237237     27.446445     27.446445     54.892890
     -2.227227     32.084616     32.084616     64.169233
     -2.217217     36.259187     36.259187     72.518374
     -2.207207     39.571399     39.571399     79.142797
     -2.197197     41.723759     41.723759     83.447519
     -2.187187     42.501278     42.501278     85.002557
     -2.177177     41.788041     41.788041     83.576082
     -2.167167     39.623184     39.623184     79.246368
     -2.157157     36.257483     36.257483     72.514965
     -2.147147     32.150755     32.150755     64.301509
     -2.137137     27.874383     27.874383     55.748766
     -2.127127     23.942787     23.942787     47.885575
     -2.117117     20.652115     20.652115     41.304230
     -2.107107     18.011668     18.011668     36.023336
     -2.097097     15.804204     15.804204     31.608408
     -2.087087     13.737634     13.737634     27.475269
     -2.077077     11.602628     11.602628     23.205255
     -2.067067      9.357711      9.357711     18.715421
     -2.057057      7.114976      7.114976     14.229953
     -2.047047      5.056874      5.056874     10.113748
     -2.037037      3.342161      3.342161      6.684322
     -2.027027      2.048016      2.048016      4.096032
     -2.017017      1.162804      1.162804      2.325608
     -2.007007      0.615206      0.615206      1.230412
     -1.996997      0.314881      0.314881      0.629761
     -1.986987      0.185974      0.185974      0.371947
     -1.976977      0.187101      0.187101      0.374203
     -1.966967      0.320186      0.320186      0.640372
     -1.956957      0.632129      0.632129      1.264258
     -1.946947      1.209669      1.209669      2.419337
     -1.936937      2.163580      2.163580      4.327160
     -1.926927      3.598207      3.598207      7.196413
     -1.916917      5.568361      5.568361     11.136722
     -1.906907      8.035564      8.035564     16.071127
     -1.896897     10.842906     10.842906     21.685811
     -1.886887     13.725430     13.725430     27.450861
     -1.876877     16.359598     16.359598     32.719196
     -1.866867     18.438163     18.438163     36.876326
     -1.856857     19.746163     19.746163     39.492326
     -1.846847     20.214506     20.214506     40.429012
     -1.836837     19.935719     19.935719     39.871437
     -1.826827     19.135120     19.135120     38.270240
     -1.816817     18.099632     18.099632     36.199263
     -1.806807     17.080291     17.080291     34.160581
     -1.796797     16.202174     16.202174     32.404347
     -1.786787     15.424011     15.424011     30.848022
     -1.776777     14.574375     14.574375     29.148751
     -1.766767     13.453302     13.453302     26.906604
     -1.756757     11.950302     11.950302     23.900604
     -1.746747     10.119756     10.119756     20.239511
     -1.736737      8.180904      8.180904     16.361808
     -1.726727      6.452827      6.452827     12.905653
     -1.716717      5.264231      5.264231     10.528461
     -1.706707      4.876900      4.876900      9.753800
     -1.696697      5.438690      5.438690     10.877380
     -1.686687      6.959841      6.959841     13.919682
     -1.676677      9.301613      9.301613     18.603226
     -1.666667     12.177070     12.177070     24.354141
     -1.656657     15.175551     15.175551     30.351101
     -1.646647     17.821676     17.821676     35.643352
     -1.636637     19.665799     19.665799     39.331599
     -1.626627     20.385532     20.385532     40.771064
