# EIG2DOS: Utility for SIESTA to obtain the electronic density of states
#  E. Artacho, Apr 1999, A. Garcia, Apr 2012
#  Nick R. Papior, Feb 2017
# ------------------------------------------
# Eigenvalues calculated from a non-polarized calculation
# Eigenvalues read from siesta.EIG
# Kpoint weights read from siesta.KP
# Using smearing parameter:   0.0500
# Using 1000 points in the energy range
# Selected bands: 1 to: 2981
# Emin, Emax in file for selected band(s):    -27.2863220    218.3737910
# Nbands, Nspin, Nk   =   2981     1     1
# E_F                 =    -4.2264 eV --> (shifted to ZERO)
# Broadening          =     0.0500 eV
#
#        E            N(up)  (=)   N(down)         Ntot
     -5.000000     35.282136     35.282136     70.564273
     -4.989990     39.463001     39.463001     78.926002
     -4.979980     42.818161     42.818161     85.636323
     -4.969970     44.796464     44.796464     89.592927
     -4.959960     45.068340     45.068340     90.136679
     -4.949950     43.633801     43.633801     87.267602
     -4.939940     40.831919     40.831919     81.663839
     -4.929930     37.267545     37.267545     74.535089
     -4.919920     33.700209     33.700209     67.400417
     -4.909910     30.931542     30.931542     61.863084
     -4.899900     29.694514     29.694514     59.389027
     -4.889890     30.524091     30.524091     61.048182
     -4.879880     33.602507     33.602507     67.205014
     -4.869870     38.619706     38.619706     77.239413
     -4.859860     44.732453     44.732453     89.464906
     -4.849850     50.698025     50.698025    101.396050
     -4.839840     55.186058     55.186058    110.372116
     -4.829830     57.171113     57.171113    114.342226
     -4.819820     56.245205     56.245205    112.490411
     -4.809810     52.712542     52.712542    105.425085
     -4.799800     47.431067     47.431067     94.862133
     -4.789790     41.486556     41.486556     82.973112
     -4.779780     35.852757     35.852757     71.705515
     -4.769770     31.171860     31.171860     62.343719
     -4.759760     27.707480     27.707480     55.414959
     -4.749750     25.434453     25.434453     50.868906
     -4.739740     24.182420     24.182420     48.364841
     -4.729730     23.753409     23.753409     47.506817
     -4.719720     23.968943     23.968943     47.937886
     -4.709710     24.646896     24.646896     49.293792
     -4.699700     25.547036     25.547036     51.094072
     -4.689690     26.344862     26.344862     52.689723
     -4.679680     26.683047     26.683047     53.366094
     -4.669670     26.305777     26.305777     52.611555
     -4.659660     25.222876     25.222876     50.445753
     -4.649650     23.813603     23.813603     47.627206
     -4.639640     22.791496     22.791496     45.582992
     -4.629630     23.009084     23.009084     46.018167
     -4.619620     25.155450     25.155450     50.310900
     -4.609610     29.455714     29.455714     58.911427
     -4.599600     35.496598     35.496598     70.993195
     -4.589590     42.268850     42.268850     84.537701
     -4.579580     48.440909     48.440909     96.881819
     -4.569570     52.781569     52.781569    105.563137
     -4.559560     54.573581     54.573581    109.147162
     -4.549550     53.848955     53.848955    107.697910
     -4.539540     51.346443     51.346443    102.692886
     -4.529530     48.212115     48.212115     96.424231
     -4.519520     45.573117     45.573117     91.146234
     -4.509510     44.158382     44.158382     88.316764
     -4.499499     44.103607     44.103607     88.207214
     -4.489489     44.988388     44.988388     89.976777
     -4.479479     46.057943     46.057943     92.115887
     -4.469469     46.520552     46.520552     93.041104
     -4.459459     45.803413     45.803413     91.606825
     -4.449449     43.688310     43.688310     87.376621
     -4.439439     40.311056     40.311056     80.622112
     -4.429429     36.064860     36.064860     72.129721
     -4.419419     31.473306     31.473306     62.946612
     -4.409409     27.085753     27.085753     54.171506
     -4.399399     23.410487     23.410487     46.820974
     -4.389389     20.866727     20.866727     41.733454
     -4.379379     19.730234     19.730234     39.460467
     -4.369369     20.071345     20.071345     40.142689
     -4.359359     21.716338     21.716338     43.432675
     -4.349349     24.272915     24.272915     48.545831
     -4.339339     27.235079     27.235079     54.470158
     -4.329329     30.137142     30.137142     60.274284
     -4.319319     32.693199     32.693199     65.386397
     -4.309309     34.860539     34.860539     69.721078
     -4.299299     36.800957     36.800957     73.601914
     -4.289289     38.758914     38.758914     77.517827
     -4.279279     40.905843     40.905843     81.811686
     -4.269269     43.207829     43.207829     86.415658
     -4.259259     45.366540     45.366540     90.733079
     -4.249249     46.866722     46.866722     93.733443
     -4.239239     47.133929     47.133929     94.267859
     -4.229229     45.760455     45.760455     91.520910
     -4.219219     42.710956     42.710956     85.421913
     -4.209209     38.405431     38.405431     76.810861
     -4.199199     33.620626     33.620626     67.241252
     -4.189189     29.238794     29.238794     58.477587
     -4.179179     25.954570     25.954570     51.909139
     -4.169169     24.074375     24.074375     48.148750
     -4.159159     23.492991     23.492991     46.985981
     -4.149149     23.840674     23.840674     47.681348
     -4.139139     24.713781     24.713781     49.427563
     -4.129129     25.870317     25.870317     51.740634
     -4.119119     27.296677     27.296677     54.593355
     -4.109109     29.117034     29.117034     58.234067
     -4.099099     31.395716     31.395716     62.791432
     -4.089089     33.944074     33.944074     67.888148
     -4.079079     36.254395     36.254395     72.508790
     -4.069069     37.626905     37.626905     75.253810
     -4.059059     37.450179     37.450179     74.900358
     -4.049049     35.498414     35.498414     70.996828
     -4.039039     32.085970     32.085970     64.171940
     -4.029029     27.992713     27.992713     55.985426
     -4.019019     24.199491     24.199491     48.398982
     -4.009009     21.570761     21.570761     43.141523
     -3.998999     20.632032     20.632032     41.264064
     -3.988989     21.516656     21.516656     43.033312
     -3.978979     24.056167     24.056167     48.112334
     -3.968969     27.925716     27.925716     55.851431
     -3.958959     32.760690     32.760690     65.521379
     -3.948949     38.212906     38.212906     76.425813
     -3.938939     43.967275     43.967275     87.934550
     -3.928929     49.754303     49.754303     99.508606
     -3.918919     55.368295     55.368295    110.736589
     -3.908909     60.667665     60.667665    121.335330
     -3.898899     65.528897     65.528897    131.057794
     -3.888889     69.758212     69.758212    139.516424
     -3.878879     73.009122     73.009122    146.018243
     -3.868869     74.772005     74.772005    149.544010
     -3.858859     74.474778     74.474778    148.949555
     -3.848849     71.675427     71.675427    143.350854
     -3.838839     66.272202     66.272202    132.544404
     -3.828829     58.637483     58.637483    117.274965
     -3.818819     49.607523     49.607523     99.215047
     -3.808809     40.318612     40.318612     80.637225
     -3.798799     31.941727     31.941727     63.883453
     -3.788789     25.404619     25.404619     50.809238
     -3.778779     21.189155     21.189155     42.378311
     -3.768769     19.258776     19.258776     38.517552
     -3.758759     19.125006     19.125006     38.250012
     -3.748749     20.022276     20.022276     40.044552
     -3.738739     21.137340     21.137340     42.274680
     -3.728729     21.833679     21.833679     43.667359
     -3.718719     21.817562     21.817562     43.635125
     -3.708709     21.206351     21.206351     42.412702
     -3.698699     20.479459     20.479459     40.958918
     -3.688689     20.318221     20.318221     40.636441
     -3.678679     21.371628     21.371628     42.743256
     -3.668669     24.014082     24.014082     48.028164
     -3.658659     28.176265     28.176265     56.352530
     -3.648649     33.316895     33.316895     66.633790
     -3.638639     38.556642     38.556642     77.113284
     -3.628629     42.930171     42.930171     85.860341
     -3.618619     45.660249     45.660249     91.320498
     -3.608609     46.350482     46.350482     92.700964
     -3.598599     45.037133     45.037133     90.074266
     -3.588589     42.108516     42.108516     84.217032
     -3.578579     38.150199     38.150199     76.300398
     -3.568569     33.781335     33.781335     67.562671
     -3.558559     29.522470     29.522470     59.044939
     -3.548549     25.708861     25.708861     51.417723
     -3.538539     22.455121     22.455121     44.910243
     -3.528529     19.679011     19.679011     39.358022
     -3.518519     17.184404     17.184404     34.368807
     -3.508509     14.779550     14.779550     29.559099
     -3.498498     12.383919     12.383919     24.767839
     -3.488488     10.077490     10.077490     20.154981
     -3.478478      8.074350      8.074350     16.148699
     -3.468468      6.638839      6.638839     13.277678
     -3.458458      5.983443      5.983443     11.966885
     -3.448448      6.185539      6.185539     12.371078
     -3.438438      7.145976      7.145976     14.291952
     -3.428428      8.600186      8.600186     17.200373
     -3.418418     10.184666     10.184666     20.369333
     -3.408408     11.549979     11.549979     23.099958
     -3.398398     12.491815     12.491815     24.983630
     -3.388388     13.053381     13.053381     26.106762
     -3.378378     13.552218     13.552218     27.104436
     -3.368368     14.509648     14.509648     29.019296
     -3.358358     16.499299     16.499299     32.998598
     -3.348348     19.960156     19.960156     39.920312
     -3.338338     25.025768     25.025768     50.051537
     -3.328328     31.410976     31.410976     62.821952
     -3.318318     38.387002     38.387002     76.774005
     -3.308308     44.870577     44.870577     89.741154
     -3.298298     49.638677     49.638677     99.277355
     -3.288288     51.640175     51.640175    103.280350
     -3.278278     50.316641     50.316641    100.633282
     -3.268268     45.806581     45.806581     91.613162
     -3.258258     38.933054     38.933054     77.866107
     -3.248248     30.965915     30.965915     61.931830
     -3.238238     23.255370     23.255370     46.510740
     -3.228228     16.885323     16.885323     33.770646
     -3.218218     12.464184     12.464184     24.928368
     -3.208208     10.088307     10.088307     20.176614
     -3.198198      9.439443      9.439443     18.878886
     -3.188188      9.951194      9.951194     19.902388
     -3.178178     10.993718     10.993718     21.987437
     -3.168168     12.047216     12.047216     24.094432
     -3.158158     12.838933     12.838933     25.677867
     -3.148148     13.410195     13.410195     26.820390
     -3.138138     14.081668     14.081668     28.163336
     -3.128128     15.311566     15.311566     30.623132
     -3.118118     17.485522     17.485522     34.971045
     -3.108108     20.714588     20.714588     41.429175
     -3.098098     24.726028     24.726028     49.452056
     -3.088088     28.901391     28.901391     57.802782
     -3.078078     32.456988     32.456988     64.913976
     -3.068068     34.697825     34.697825     69.395650
     -3.058058     35.238179     35.238179     70.476357
     -3.048048     34.094385     34.094385     68.188769
     -3.038038     31.617790     31.617790     63.235581
     -3.028028     28.317033     28.317033     56.634067
     -3.018018     24.671192     24.671192     49.342384
     -3.008008     21.026745     21.026745     42.053490
     -2.997998     17.609716     17.609716     35.219432
     -2.987988     14.613149     14.613149     29.226297
     -2.977978     12.284332     12.284332     24.568664
     -2.967968     10.950718     10.950718     21.901436
     -2.957958     10.967263     10.967263     21.934527
     -2.947948     12.608425     12.608425     25.216850
     -2.937938     15.947285     15.947285     31.894570
     -2.927928     20.765300     20.765300     41.530599
     -2.917918     26.528981     26.528981     53.057962
     -2.907908     32.456801     32.456801     64.913602
     -2.897898     37.675987     37.675987     75.351973
     -2.887888     41.434251     41.434251     82.868502
     -2.877878     43.298667     43.298667     86.597334
     -2.867868     43.263790     43.263790     86.527581
     -2.857858     41.717892     41.717892     83.435783
     -2.847848     39.274030     39.274030     78.548061
     -2.837838     36.535215     36.535215     73.070429
     -2.827828     33.896111     33.896111     67.792222
     -2.817818     31.466391     31.466391     62.932782
     -2.807808     29.138914     29.138914     58.277828
     -2.797798     26.751898     26.751898     53.503796
     -2.787788     24.249059     24.249059     48.498118
     -2.777778     21.750644     21.750644     43.501289
     -2.767768     19.505430     19.505430     39.010860
     -2.757758     17.765043     17.765043     35.530085
     -2.747748     16.665146     16.665146     33.330292
     -2.737738     16.187507     16.187507     32.375013
     -2.727728     16.219812     16.219812     32.439624
     -2.717718     16.662949     16.662949     33.325897
     -2.707708     17.503054     17.503054     35.006107
     -2.697698     18.791604     18.791604     37.583207
     -2.687688     20.545538     20.545538     41.091077
     -2.677678     22.643471     22.643471     45.286941
     -2.667668     24.805493     24.805493     49.610986
     -2.657658     26.690145     26.690145     53.380291
     -2.647648     28.057984     28.057984     56.115967
     -2.637638     28.897584     28.897584     57.795167
     -2.627628     29.428412     29.428412     58.856823
     -2.617618     29.974753     29.974753     59.949505
     -2.607608     30.788291     30.788291     61.576582
     -2.597598     31.923519     31.923519     63.847037
     -2.587588     33.224268     33.224268     66.448536
     -2.577578     34.401997     34.401997     68.803995
     -2.567568     35.138548     35.138548     70.277095
     -2.557558     35.158781     35.158781     70.317562
     -2.547548     34.268650     34.268650     68.537300
     -2.537538     32.390039     32.390039     64.780079
     -2.527528     29.613302     29.613302     59.226604
     -2.517518     26.246621     26.246621     52.493241
     -2.507508     22.811986     22.811986     45.623973
     -2.497497     19.951530     19.951530     39.903061
     -2.487487     18.257500     18.257500     36.514999
     -2.477477     18.088627     18.088627     36.177254
     -2.467467     19.452330     19.452330     38.904659
     -2.457457     22.007644     22.007644     44.015287
     -2.447447     25.192758     25.192758     50.385516
     -2.437437     28.427769     28.427769     56.855537
     -2.427427     31.309877     31.309877     62.619753
     -2.417417     33.718553     33.718553     67.437105
     -2.407407     35.783919     35.783919     71.567838
     -2.397397     37.730546     37.730546     75.461092
     -2.387387     39.667715     39.667715     79.335430
     -2.377377     41.429640     41.429640     82.859279
     -2.367367     42.555890     42.555890     85.111779
     -2.357357     42.441537     42.441537     84.883074
     -2.347347     40.601263     40.601263     81.202526
     -2.337337     36.925706     36.925706     73.851413
     -2.327327     31.803783     31.803783     63.607567
     -2.317317     26.050315     26.050315     52.100629
     -2.307307     20.676494     20.676494     41.352988
     -2.297297     16.611074     16.611074     33.222147
     -2.287287     14.484193     14.484193     28.968387
     -2.277277     14.533237     14.533237     29.066474
     -2.267267     16.624496     16.624496     33.248991
     -2.257257     20.345080     20.345080     40.690160
     -2.247247     25.116106     25.116106     50.232212
     -2.237237     30.295220     30.295220     60.590441
     -2.227227     35.255047     35.255047     70.510095
     -2.217217     39.436394     39.436394     78.872788
     -2.207207     42.383102     42.383102     84.766205
     -2.197197     43.771156     43.771156     87.542312
     -2.187187     43.444096     43.444096     86.888193
     -2.177177     41.454519     41.454519     82.909038
     -2.167167     38.090398     38.090398     76.180797
     -2.157157     33.850666     33.850666     67.701332
     -2.147147     29.345538     29.345538     58.691076
     -2.137137     25.136696     25.136696     50.273392
     -2.127127     21.577965     21.577965     43.155930
     -2.117117     18.733122     18.733122     37.466245
     -2.107107     16.414648     16.414648     32.829296
     -2.097097     14.322446     14.322446     28.644892
     -2.087087     12.207641     12.207641     24.415282
     -2.077077      9.979460      9.979460     19.958921
     -2.067067      7.714482      7.714482     15.428964
     -2.057057      5.585667      5.585667     11.171333
     -2.047047      3.765402      3.765402      7.530804
     -2.037037      2.355161      2.355161      4.710322
     -2.027027      1.365362      1.365362      2.730724
     -2.017017      0.737493      0.737493      1.474987
     -2.007007      0.384898      0.384898      0.769796
     -1.996997      0.231328      0.231328      0.462657
     -1.986987      0.238247      0.238247      0.476493
     -1.976977      0.421801      0.421801      0.843601
     -1.966967      0.862608      0.862608      1.725216
     -1.956957      1.706429      1.706429      3.412859
     -1.946947      3.146605      3.146605      6.293210
     -1.936937      5.377106      5.377106     10.754213
     -1.926927      8.514282      8.514282     17.028564
     -1.916917     12.505817     12.505817     25.011635
     -1.906907     17.066709     17.066709     34.133419
     -1.896897     21.686876     21.686876     43.373751
     -1.886887     25.731303     25.731303     51.462606
     -1.876877     28.608554     28.608554     57.217107
     -1.866867     29.943555     29.943555     59.887109
     -1.856857     29.683570     29.683570     59.367140
     -1.846847     28.097570     28.097570     56.195139
     -1.836837     25.677113     25.677113     51.354227
     -1.826827     22.981948     22.981948     45.963895
     -1.816817     20.482901     20.482901     40.965803
     -1.806807     18.446357     18.446357     36.892714
     -1.796797     16.890662     16.890662     33.781323
     -1.786787     15.626834     15.626834     31.253668
     -1.776777     14.369489     14.369489     28.738978
     -1.766767     12.874241     12.874241     25.748482
     -1.756757     11.043133     11.043133     22.086267
     -1.746747      8.955010      8.955010     17.910020
     -1.736737      6.817791      6.817791     13.635581
     -1.726727      4.879214      4.879214      9.758429
     -1.716717      3.346760      3.346760      6.693520
     -1.706707      2.350484      2.350484      4.700969
     -1.696697      1.949857      1.949857      3.899714
     -1.686687      2.159622      2.159622      4.319243
     -1.676677      2.964063      2.964063      5.928126
     -1.666667      4.303579      4.303579      8.607159
     -1.656657      6.041825      6.041825     12.083649
     -1.646647      7.941765      7.941765     15.883530
     -1.636637      9.682536      9.682536     19.365072
     -1.626627     10.931283     10.931283     21.862566
