# EIG2DOS: Utility for SIESTA to obtain the electronic density of states
#  E. Artacho, Apr 1999, A. Garcia, Apr 2012
#  Nick R. Papior, Feb 2017
# ------------------------------------------
# Eigenvalues calculated from a non-polarized calculation
# Eigenvalues read from siesta.EIG
# Kpoint weights read from siesta.KP
# Using smearing parameter:   0.0500
# Using 1000 points in the energy range
# Selected bands: 1 to: 2981
# Emin, Emax in file for selected band(s):    -27.0775147    218.3471670
# Nbands, Nspin, Nk   =   2981     1     1
# E_F                 =    -4.2572 eV --> (shifted to ZERO)
# Broadening          =     0.0500 eV
#
#        E            N(up)  (=)   N(down)         Ntot
     -5.000000     35.644504     35.644504     71.289007
     -4.989990     39.118883     39.118883     78.237766
     -4.979980     41.834201     41.834201     83.668402
     -4.969970     43.369493     43.369493     86.738985
     -4.959960     43.486604     43.486604     86.973209
     -4.949950     42.194208     42.194208     84.388415
     -4.939940     39.754236     39.754236     79.508473
     -4.929930     36.641314     36.641314     73.282628
     -4.919920     33.480145     33.480145     66.960291
     -4.909910     30.976465     30.976465     61.952931
     -4.899900     29.832634     29.832634     59.665268
     -4.889890     30.623266     30.623266     61.246532
     -4.879880     33.623022     33.623022     67.246044
     -4.869870     38.628951     38.628951     77.257903
     -4.859860     44.870912     44.870912     89.741823
     -4.849850     51.106594     51.106594    102.213189
     -4.839840     55.927106     55.927106    111.854212
     -4.829830     58.183606     58.183606    116.367212
     -4.819820     57.358057     57.358057    114.716114
     -4.809810     53.708040     53.708040    107.416081
     -4.799800     48.123216     48.123216     96.246433
     -4.789790     41.774993     41.774993     83.549986
     -4.779780     35.731391     35.731391     71.462781
     -4.769770     30.696425     30.696425     61.392850
     -4.759760     26.940738     26.940738     53.881475
     -4.749750     24.387762     24.387762     48.775524
     -4.739740     22.766693     22.766693     45.533386
     -4.729730     21.751344     21.751344     43.502689
     -4.719720     21.044330     21.044330     42.088659
     -4.709710     20.405928     20.405928     40.811856
     -4.699700     19.651276     19.651276     39.302553
     -4.689690     18.647513     18.647513     37.295026
     -4.679680     17.335304     17.335304     34.670608
     -4.669670     15.778171     15.778171     31.556342
     -4.659660     14.216702     14.216702     28.433404
     -4.649650     13.088300     13.088300     26.176600
     -4.639640     12.977615     12.977615     25.955230
     -4.629630     14.486171     14.486171     28.972343
     -4.619620     18.041431     18.041431     36.082862
     -4.609610     23.696452     23.696452     47.392904
     -4.599600     30.994399     30.994399     61.988798
     -4.589590     38.975559     38.975559     77.951119
     -4.579580     46.371857     46.371857     92.743713
     -4.569570     51.961239     51.961239    103.922478
     -4.559560     54.968192     54.968192    109.936384
     -4.549550     55.347133     55.347133    110.694266
     -4.539540     53.813197     53.813197    107.626394
     -4.529530     51.586808     51.586808    103.173615
     -4.519520     49.944773     49.944773     99.889546
     -4.509510     49.756588     49.756588     99.513176
     -4.499499     51.188916     51.188916    102.377832
     -4.489489     53.685620     53.685620    107.371240
     -4.479479     56.213193     56.213193    112.426386
     -4.469469     57.655466     57.655466    115.310931
     -4.459459     57.192706     57.192706    114.385411
     -4.449449     54.527002     54.527002    109.054004
     -4.439439     49.900053     49.900053     99.800105
     -4.429429     43.944984     43.944984     87.889967
     -4.419419     37.471373     37.471373     74.942746
     -4.409409     31.278533     31.278533     62.557065
     -4.399399     26.040989     26.040989     52.081979
     -4.389389     22.253178     22.253178     44.506355
     -4.379379     20.195806     20.195806     40.391613
     -4.369369     19.903604     19.903604     39.807207
     -4.359359     21.150037     21.150037     42.300074
     -4.349349     23.483982     23.483982     46.967964
     -4.339339     26.336956     26.336956     52.673911
     -4.329329     29.178355     29.178355     58.356710
     -4.319319     31.661094     31.661094     63.322188
     -4.309309     33.697214     33.697214     67.394428
     -4.299299     35.434045     35.434045     70.868091
     -4.289289     37.144578     37.144578     74.289156
     -4.279279     39.075471     39.075471     78.150942
     -4.269269     41.303786     41.303786     82.607572
     -4.259259     43.647922     43.647922     87.295844
     -4.249249     45.669132     45.669132     91.338263
     -4.239239     46.783053     46.783053     93.566106
     -4.229229     46.464139     46.464139     92.928278
     -4.219219     44.473965     44.473965     88.947931
     -4.209209     41.008454     41.008454     82.016908
     -4.199199     36.676939     36.676939     73.353879
     -4.189189     32.303914     32.303914     64.607827
     -4.179179     28.640378     28.640378     57.280757
     -4.169169     26.123193     26.123193     52.246387
     -4.159159     24.792876     24.792876     49.585751
     -4.149149     24.392536     24.392536     48.785073
     -4.139139     24.578465     24.578465     49.156929
     -4.129129     25.125553     25.125553     50.251106
     -4.119119     26.023792     26.023792     52.047584
     -4.109109     27.420583     27.420583     54.841167
     -4.099099     29.440465     29.440465     58.880930
     -4.089089     31.979855     31.979855     63.959711
     -4.079079     34.599833     34.599833     69.199665
     -4.069069     36.602494     36.602494     73.204987
     -4.059059     37.282030     37.282030     74.564059
     -4.049049     36.236712     36.236712     72.473425
     -4.039039     33.579449     33.579449     67.158897
     -4.029029     29.931825     29.931825     59.863650
     -4.019019     26.205395     26.205395     52.410791
     -4.009009     23.288460     23.288460     46.576920
     -3.998999     21.793943     21.793943     43.587885
     -3.988989     21.967199     21.967199     43.934398
     -3.978979     23.748736     23.748736     47.497473
     -3.968969     26.908052     26.908052     53.816103
     -3.958959     31.155836     31.155836     62.311672
     -3.948949     36.193110     36.193110     72.386220
     -3.938939     41.717968     41.717968     83.435935
     -3.928929     47.435015     47.435015     94.870030
     -3.918919     53.087722     53.087722    106.175443
     -3.908909     58.489876     58.489876    116.979751
     -3.898899     63.512627     63.512627    127.025253
     -3.888889     68.008700     68.008700    136.017400
     -3.878879     71.707383     71.707383    143.414766
     -3.868869     74.152679     74.152679    148.305358
     -3.858859     74.750927     74.750927    149.501854
     -3.848849     72.941608     72.941608    145.883217
     -3.838839     68.434541     68.434541    136.869082
     -3.828829     61.408938     61.408938    122.817876
     -3.818819     52.574107     52.574107    105.148214
     -3.808809     43.048270     43.048270     86.096539
     -3.798799     34.091675     34.091675     68.183350
     -3.788789     26.790947     26.790947     53.581894
     -3.778779     21.804645     21.804645     43.609289
     -3.768769     19.245779     19.245779     38.491559
     -3.758759     18.720358     18.720358     37.440716
     -3.748749     19.491225     19.491225     38.982450
     -3.738739     20.709672     20.709672     41.419344
     -3.728729     21.652438     21.652438     43.304877
     -3.718719     21.909627     21.909627     43.819254
     -3.708709     21.482180     21.482180     42.964361
     -3.698699     20.764355     20.764355     41.528710
     -3.688689     20.409354     20.409354     40.818708
     -3.678679     21.105994     21.105994     42.211988
     -3.668669     23.326313     23.326313     46.652627
     -3.658659     27.125981     27.125981     54.251961
     -3.648649     32.074899     32.074899     64.149797
     -3.638639     37.355122     37.355122     74.710243
     -3.628629     41.996717     41.996717     83.993434
     -3.618619     45.160760     45.160760     90.321521
     -3.608609     46.358791     46.358791     92.717582
     -3.598599     45.534557     45.534557     91.069115
     -3.588589     43.004223     43.004223     86.008447
     -3.578579     39.310019     39.310019     78.620038
     -3.568569     35.057117     35.057117     70.114234
     -3.558559     30.779269     30.779269     61.558538
     -3.548549     26.847858     26.847858     53.695716
     -3.538539     23.427357     23.427357     46.854714
     -3.528529     20.484325     20.484325     40.968649
     -3.518519     17.854711     17.854711     35.709421
     -3.508509     15.353390     15.353390     30.706779
     -3.498498     12.883934     12.883934     25.767869
     -3.488488     10.500373     10.500373     21.000746
     -3.478478      8.395561      8.395561     16.791123
     -3.468468      6.827344      6.827344     13.654688
     -3.458458      6.018818      6.018818     12.037636
     -3.448448      6.071024      6.071024     12.142047
     -3.438438      6.913455      6.913455     13.826911
     -3.428428      8.304774      8.304774     16.609547
     -3.418418      9.887847      9.887847     19.775695
     -3.408408     11.292763     11.292763     22.585526
     -3.398398     12.262829     12.262829     24.525658
     -3.388388     12.759277     12.759277     25.518553
     -3.378378     12.997436     12.997436     25.994873
     -3.368368     13.390788     13.390788     26.781577
     -3.358358     14.419605     14.419605     28.839211
     -3.348348     16.472971     16.472971     32.945941
     -3.338338     19.716977     19.716977     39.433953
     -3.328328     24.020248     24.020248     48.040495
     -3.318318     28.942576     28.942576     57.885152
     -3.308308     33.783784     33.783784     67.567568
     -3.298298     37.696033     37.696033     75.392067
     -3.288288     39.861040     39.861040     79.722080
     -3.278278     39.705957     39.705957     79.411914
     -3.268268     37.089858     37.089858     74.179716
     -3.258258     32.375020     32.375020     64.750040
     -3.248248     26.333280     26.333280     52.666559
     -3.238238     19.915550     19.915550     39.831099
     -3.228228     13.982076     13.982076     27.964152
     -3.218218      9.104851      9.104851     18.209703
     -3.208208      5.506003      5.506003     11.012006
     -3.198198      3.124012      3.124012      6.248024
     -3.188188      1.749576      1.749576      3.499153
     -3.178178      1.165641      1.165641      2.331282
     -3.168168      1.249593      1.249593      2.499186
     -3.158158      2.023306      2.023306      4.046612
     -3.148148      3.650534      3.650534      7.301069
     -3.138138      6.381612      6.381612     12.763224
     -3.128128     10.446170     10.446170     20.892339
     -3.118118     15.908913     15.908913     31.817825
     -3.108108     22.531411     22.531411     45.062823
     -3.098098     29.706954     29.706954     59.413908
     -3.088088     36.530126     36.530126     73.060251
     -3.078078     42.013782     42.013782     84.027563
     -3.068068     45.388858     45.388858     90.777717
     -3.058058     46.360549     46.360549     92.721098
     -3.048048     45.193844     45.193844     90.387688
     -3.038038     42.575969     42.575969     85.151938
     -3.028028     39.317254     39.317254     78.634508
     -3.018018     36.038669     36.038669     72.077338
     -3.008008     32.999321     32.999321     65.998641
     -2.997998     30.136251     30.136251     60.272503
     -2.987988     27.271674     27.271674     54.543347
     -2.977978     24.358959     24.358959     48.717918
     -2.967968     21.632330     21.632330     43.264659
     -2.957958     19.589206     19.589206     39.178411
     -2.947948     18.822822     18.822822     37.645644
     -2.937938     19.787045     19.787045     39.574090
     -2.927928     22.592480     22.592480     45.184960
     -2.917918     26.910296     26.910296     53.820592
     -2.907908     32.017936     32.017936     64.035872
     -2.897898     36.974992     36.974992     73.949983
     -2.887888     40.876154     40.876154     81.752308
     -2.877878     43.099097     43.099097     86.198195
     -2.867868     43.460221     43.460221     86.920442
     -2.857858     42.219670     42.219670     84.439341
     -2.847848     39.934586     39.934586     79.869172
     -2.837838     37.223568     37.223568     74.447136
     -2.827828     34.544405     34.544405     69.088810
     -2.817818     32.078734     32.078734     64.157467
     -2.807808     29.762975     29.762975     59.525949
     -2.797798     27.431539     27.431539     54.863078
     -2.787788     24.984652     24.984652     49.969304
     -2.777778     22.487868     22.487868     44.975736
     -2.767768     20.155718     20.155718     40.311435
     -2.757758     18.241605     18.241605     36.483209
     -2.747748     16.909816     16.909816     33.819633
     -2.737738     16.171742     16.171742     32.343485
     -2.727728     15.923345     15.923345     31.846689
     -2.717718     16.052399     16.052399     32.104799
     -2.707708     16.536112     16.536112     33.072225
     -2.697698     17.455330     17.455330     34.910660
     -2.687688     18.909453     18.909453     37.818907
     -2.677678     20.888812     20.888812     41.777625
     -2.667668     23.198020     23.198020     46.396039
     -2.657658     25.495767     25.495767     50.991534
     -2.647648     27.439155     27.439155     54.878310
     -2.637638     28.846419     28.846419     57.692838
     -2.627628     29.774626     29.774626     59.549252
     -2.617618     30.463290     30.463290     60.926580
     -2.607608     31.182812     31.182812     62.365625
     -2.597598     32.084185     32.084185     64.168370
     -2.587588     33.133267     33.133267     66.266533
     -2.577578     34.144909     34.144909     68.289818
     -2.567568     34.867038     34.867038     69.734077
     -2.557558     35.052358     35.052358     70.104716
     -2.547548     34.495655     34.495655     68.991310
     -2.537538     33.061875     33.061875     66.123751
     -2.527528     30.737249     30.737249     61.474498
     -2.517518     27.698112     27.698112     55.396223
     -2.507508     24.348694     24.348694     48.697389
     -2.497497     21.273908     21.273908     42.547816
     -2.487487     19.095539     19.095539     38.191079
     -2.477477     18.280010     18.280010     36.560020
     -2.467467     18.981464     18.981464     37.962927
     -2.457457     20.993826     20.993826     41.987653
     -2.447447     23.837378     23.837378     47.674757
     -2.437437     26.945070     26.945070     53.890139
     -2.427427     29.868924     29.868924     59.737848
     -2.417417     32.416471     32.416471     64.832942
     -2.407407     34.656373     34.656373     69.312746
     -2.397397     36.790347     36.790347     73.580693
     -2.387387     38.951145     38.951145     77.902289
     -2.377377     41.025936     41.025936     82.051872
     -2.367367     42.600648     42.600648     85.201296
     -2.357357     43.070145     43.070145     86.140291
     -2.347347     41.879705     41.879705     83.759410
     -2.337337     38.792368     38.792368     77.584735
     -2.327327     34.055143     34.055143     68.110287
     -2.317317     28.382642     28.382642     56.765284
     -2.307307     22.766350     22.766350     45.532700
     -2.297297     18.198385     18.198385     36.396771
     -2.287287     15.424158     15.424158     30.848315
     -2.277277     14.803158     14.803158     29.606315
     -2.267267     16.294377     16.294377     32.588754
     -2.257257     19.533928     19.533928     39.067855
     -2.247247     23.955920     23.955920     47.911840
     -2.237237     28.915381     28.915381     57.830762
     -2.227227     33.786930     33.786930     67.573860
     -2.217217     38.026650     38.026650     76.053300
     -2.207207     41.198532     41.198532     82.397064
     -2.197197     42.981790     42.981790     85.963580
     -2.187187     43.183653     43.183653     86.367305
     -2.177177     41.773245     41.773245     83.546490
     -2.167167     38.925219     38.925219     77.850438
     -2.157157     35.033926     35.033926     70.067852
     -2.147147     30.656005     30.656005     61.312010
     -2.137137     26.373562     26.373562     52.747124
     -2.127127     22.624155     22.624155     45.248310
     -2.117117     19.578345     19.578345     39.156690
     -2.107107     17.130033     17.130033     34.260065
     -2.097097     15.004346     15.004346     30.008692
     -2.087087     12.922343     12.922343     25.844686
     -2.077077     10.735329     10.735329     21.470659
     -2.067067      8.468901      8.468901     16.937803
     -2.057057      6.274661      6.274661     12.549322
     -2.047047      4.335485      4.335485      8.670970
     -2.037037      2.781794      2.781794      5.563588
     -2.027027      1.653862      1.653862      3.307724
     -2.017017      0.911642      0.911642      1.823284
     -2.007007      0.471240      0.471240      0.942480
     -1.996997      0.244147      0.244147      0.488295
     -1.986987      0.165312      0.165312      0.330624
     -1.976977      0.207962      0.207962      0.415923
     -1.966967      0.389181      0.389181      0.778362
     -1.956957      0.769427      0.769427      1.538854
     -1.946947      1.444659      1.444659      2.889318
     -1.936937      2.526471      2.526471      5.052943
     -1.926927      4.107442      4.107442      8.214884
     -1.916917      6.216737      6.216737     12.433474
     -1.906907      8.780959      8.780959     17.561917
     -1.896897     11.609865     11.609865     23.219731
     -1.886887     14.420162     14.420162     28.840325
     -1.876877     16.894607     16.894607     33.789213
     -1.866867     18.757723     18.757723     37.515447
     -1.856857     19.843380     19.843380     39.686761
     -1.846847     20.134871     20.134871     40.269742
     -1.836837     19.767918     19.767918     39.535837
     -1.826827     18.994634     18.994634     37.989269
     -1.816817     18.113646     18.113646     36.227293
     -1.806807     17.383554     17.383554     34.767108
     -1.796797     16.950446     16.950446     33.900892
     -1.786787     16.821608     16.821608     33.643215
     -1.776777     16.896501     16.896501     33.793002
     -1.766767     17.032083     17.032083     34.064167
     -1.756757     17.099063     17.099063     34.198126
     -1.746747     16.998473     16.998473     33.996946
     -1.736737     16.645313     16.645313     33.290626
     -1.726727     15.955813     15.955813     31.911625
     -1.716717     14.870200     14.870200     29.740400
     -1.706707     13.407598     13.407598     26.815195
     -1.696697     11.714518     11.714518     23.429037
     -1.686687     10.062963     10.062963     20.125926
     -1.676677      8.781778      8.781778     17.563556
     -1.666667      8.144018      8.144018     16.288037
     -1.656657      8.258057      8.258057     16.516114
     -1.646647      9.010184      9.010184     18.020369
     -1.636637     10.086376     10.086376     20.172753
     -1.626627     11.071272     11.071272     22.142544
