# EIG2DOS: Utility for SIESTA to obtain the electronic density of states
#  E. Artacho, Apr 1999, A. Garcia, Apr 2012
#  Nick R. Papior, Feb 2017
# ------------------------------------------
# Eigenvalues calculated from a non-polarized calculation
# Eigenvalues read from siesta.EIG
# Kpoint weights read from siesta.KP
# Using smearing parameter:   0.0500
# Using 1000 points in the energy range
# Selected bands: 1 to: 2981
# Emin, Emax in file for selected band(s):    -27.1084632    218.3649360
# Nbands, Nspin, Nk   =   2981     1     1
# E_F                 =    -4.2377 eV --> (shifted to ZERO)
# Broadening          =     0.0500 eV
#
#        E            N(up)  (=)   N(down)         Ntot
     -5.000000     33.432978     33.432978     66.865956
     -4.989990     37.601744     37.601744     75.203488
     -4.979980     41.245027     41.245027     82.490054
     -4.969970     43.789922     43.789922     87.579844
     -4.959960     44.799426     44.799426     89.598853
     -4.949950     44.112375     44.112375     88.224750
     -4.939940     41.905158     41.905158     83.810316
     -4.929930     38.663502     38.663502     77.327004
     -4.919920     35.092305     35.092305     70.184610
     -4.909910     32.002208     32.002208     64.004415
     -4.899900     30.190808     30.190808     60.381616
     -4.889890     30.308633     30.308633     60.617266
     -4.879880     32.698241     32.698241     65.396482
     -4.869870     37.231574     37.231574     74.463148
     -4.859860     43.220406     43.220406     86.440811
     -4.849850     49.488938     49.488938     98.977875
     -4.839840     54.644477     54.644477    109.288955
     -4.829830     57.479240     57.479240    114.958480
     -4.819820     57.346934     57.346934    114.693868
     -4.809810     54.347489     54.347489    108.694978
     -4.799800     49.239277     49.239277     98.478553
     -4.789790     43.131636     43.131636     86.263272
     -4.779780     37.109310     37.109310     74.218620
     -4.769770     31.948322     31.948322     63.896643
     -4.759760     28.007670     28.007670     56.015339
     -4.749750     25.281984     25.281984     50.563967
     -4.739740     23.537858     23.537858     47.075717
     -4.729730     22.452423     22.452423     44.904847
     -4.719720     21.707112     21.707112     43.414223
     -4.709710     21.030108     21.030108     42.060217
     -4.699700     20.207607     20.207607     40.415214
     -4.689690     19.092443     19.092443     38.184886
     -4.679680     17.630751     17.630751     35.261503
     -4.669670     15.907301     15.907301     31.814603
     -4.659660     14.187619     14.187619     28.375238
     -4.649650     12.923336     12.923336     25.846673
     -4.639640     12.694200     12.694200     25.388400
     -4.629630     14.082090     14.082090     28.164180
     -4.619620     17.499025     17.499025     34.998050
     -4.609610     23.014710     23.014710     46.029420
     -4.599600     30.245022     30.245022     60.490043
     -4.589590     38.362361     38.362361     76.724723
     -4.579580     46.259641     46.259641     92.519282
     -4.569570     52.839933     52.839933    105.679867
     -4.559560     57.336334     57.336334    114.672667
     -4.549550     59.532788     59.532788    119.065576
     -4.539540     59.787292     59.787292    119.574584
     -4.529530     58.845717     58.845717    117.691433
     -4.519520     57.530634     57.530634    115.061268
     -4.509510     56.440727     56.440727    112.881454
     -4.499499     55.778105     55.778105    111.556210
     -4.489489     55.350904     55.350904    110.701807
     -4.479479     54.719728     54.719728    109.439457
     -4.469469     53.406719     53.406719    106.813438
     -4.459459     51.079844     51.079844    102.159687
     -4.449449     47.654034     47.654034     95.308069
     -4.439439     43.295392     43.295392     86.590783
     -4.429429     38.354779     38.354779     76.709559
     -4.419419     33.277263     33.277263     66.554527
     -4.409409     28.527040     28.527040     57.054079
     -4.399399     24.539945     24.539945     49.079890
     -4.389389     21.687062     21.687062     43.374125
     -4.379379     20.225534     20.225534     40.451069
     -4.369369     20.233632     20.233632     40.467264
     -4.359359     21.559609     21.559609     43.119219
     -4.349349     23.828829     23.828829     47.657657
     -4.339339     26.533593     26.533593     53.067185
     -4.329329     29.185081     29.185081     58.370162
     -4.319319     31.467179     31.467179     62.934358
     -4.309309     33.324686     33.324686     66.649372
     -4.299299     34.946912     34.946912     69.893823
     -4.289289     36.652466     36.652466     73.304931
     -4.279279     38.717903     38.717903     77.435807
     -4.269269     41.210628     41.210628     82.421256
     -4.259259     43.887618     43.887618     87.775235
     -4.249249     46.209304     46.209304     92.418608
     -4.239239     47.487216     47.487216     94.974432
     -4.229229     47.131450     47.131450     94.262900
     -4.219219     44.905804     44.905804     89.811608
     -4.209209     41.071518     41.071518     82.143036
     -4.199199     36.336655     36.336655     72.673310
     -4.189189     31.620183     31.620183     63.240366
     -4.179179     27.736707     27.736707     55.473413
     -4.169169     25.148356     25.148356     50.296712
     -4.159159     23.889471     23.889471     47.778942
     -4.149149     23.676068     23.676068     47.352136
     -4.139139     24.123168     24.123168     48.246335
     -4.129129     24.953497     24.953497     49.906993
     -4.119119     26.099553     26.099553     52.199106
     -4.109109     27.658397     27.658397     55.316794
     -4.099099     29.728500     29.728500     59.457001
     -4.089089     32.216817     32.216817     64.433634
     -4.079079     34.728657     34.728657     69.457313
     -4.069069     36.623361     36.623361     73.246723
     -4.059059     37.236625     37.236625     74.473250
     -4.049049     36.172883     36.172883     72.345765
     -4.039039     33.518488     33.518488     67.036976
     -4.029029     29.859358     29.859358     59.718716
     -4.019019     26.091078     26.091078     52.182157
     -4.009009     23.120029     23.120029     46.240057
     -3.998999     21.601338     21.601338     43.202676
     -3.988989     21.819352     21.819352     43.638704
     -3.978979     23.723976     23.723976     47.447951
     -3.968969     27.056019     27.056019     54.112037
     -3.958959     31.473099     31.473099     62.946197
     -3.948949     36.624709     36.624709     73.249418
     -3.938939     42.181071     42.181071     84.362142
     -3.928929     47.849764     47.849764     95.699528
     -3.918919     53.400119     53.400119    106.800238
     -3.908909     58.679783     58.679783    117.359567
     -3.898899     63.589390     63.589390    127.178780
     -3.888889     68.001538     68.001538    136.003075
     -3.878879     71.656346     71.656346    143.312691
     -3.868869     74.101678     74.101678    148.203356
     -3.858859     74.741112     74.741112    149.482223
     -3.848849     73.003426     73.003426    146.006851
     -3.838839     68.579443     68.579443    137.158887
     -3.828829     61.624261     61.624261    123.248522
     -3.818819     52.824728     52.824728    105.649455
     -3.808809     43.285940     43.285940     86.571880
     -3.798799     34.269268     34.269268     68.538536
     -3.788789     26.876613     26.876613     53.753226
     -3.778779     21.791084     21.791084     43.582169
     -3.768769     19.151842     19.151842     38.303685
     -3.758759     18.584668     18.584668     37.169336
     -3.748749     19.359772     19.359772     38.719544
     -3.738739     20.620964     20.620964     41.241929
     -3.728729     21.624720     21.624720     43.249439
     -3.718719     21.934353     21.934353     43.868707
     -3.708709     21.526302     21.526302     43.052605
     -3.698699     20.781305     20.781305     41.562609
     -3.688689     20.355744     20.355744     40.711488
     -3.678679     20.958677     20.958677     41.917353
     -3.668669     23.093439     23.093439     46.186878
     -3.658659     26.846968     26.846968     53.693936
     -3.648649     31.808191     31.808191     63.616381
     -3.638639     37.158130     37.158130     74.316259
     -3.628629     41.906545     41.906545     83.813091
     -3.618619     45.184172     45.184172     90.368344
     -3.608609     46.474898     46.474898     92.949795
     -3.598599     45.706929     45.706929     91.413858
     -3.588589     43.195030     43.195030     86.390060
     -3.578579     39.489865     39.489865     78.979731
     -3.568569     35.208773     35.208773     70.417545
     -3.558559     30.897502     30.897502     61.795004
     -3.548549     26.938169     26.938169     53.876338
     -3.538539     23.504174     23.504174     47.008347
     -3.528529     20.567148     20.567148     41.134297
     -3.518519     17.961183     17.961183     35.922366
     -3.508509     15.490827     15.490827     30.981653
     -3.498498     13.043043     13.043043     26.086087
     -3.488488     10.654560     10.654560     21.309120
     -3.478478      8.506728      8.506728     17.013455
     -3.468468      6.856405      6.856405     13.712810
     -3.458458      5.937962      5.937962     11.875923
     -3.448448      5.874777      5.874777     11.749554
     -3.438438      6.625712      6.625712     13.251425
     -3.428428      7.978670      7.978670     15.957339
     -3.418418      9.595985      9.595985     19.191971
     -3.408408     11.108174     11.108174     22.216349
     -3.398398     12.235627     12.235627     24.471253
     -3.388388     12.897346     12.897346     25.794691
     -3.378378     13.258843     13.258843     26.517687
     -3.368368     13.690927     13.690927     27.381853
     -3.358358     14.650599     14.650599     29.301199
     -3.348348     16.529995     16.529995     33.059990
     -3.338338     19.526249     19.526249     39.052497
     -3.328328     23.563860     23.563860     47.127719
     -3.318318     28.273837     28.273837     56.547675
     -3.308308     33.024934     33.024934     66.049868
     -3.298298     37.012566     37.012566     74.025132
     -3.288288     39.415923     39.415923     78.831845
     -3.278278     39.608955     39.608955     79.217911
     -3.268268     37.363576     37.363576     74.727153
     -3.258258     32.953935     32.953935     65.907870
     -3.248248     27.097028     27.097028     54.194056
     -3.238238     20.742560     20.742560     41.485119
     -3.228228     14.803785     14.803785     29.607569
     -3.218218      9.945967      9.945967     19.891935
     -3.208208      6.505746      6.505746     13.011492
     -3.198198      4.537784      4.537784      9.075569
     -3.188188      3.926590      3.926590      7.853181
     -3.178178      4.491253      4.491253      8.982506
     -3.168168      6.042543      6.042543     12.085085
     -3.158158      8.395734      8.395734     16.791468
     -3.148148     11.369066     11.369066     22.738132
     -3.138138     14.794001     14.794001     29.588002
     -3.128128     18.537653     18.537653     37.075305
     -3.118118     22.513227     22.513227     45.026454
     -3.108108     26.653747     26.653747     53.307494
     -3.098098     30.851708     30.851708     61.703416
     -3.088088     34.901638     34.901638     69.803277
     -3.078078     38.492302     38.492302     76.984605
     -3.068068     41.266581     41.266581     82.533163
     -3.058058     42.919288     42.919288     85.838576
     -3.048048     43.275392     43.275392     86.550784
     -3.038038     42.307876     42.307876     84.615752
     -3.028028     40.102279     40.102279     80.204558
     -3.018018     36.813415     36.813415     73.626830
     -3.008008     32.657060     32.657060     65.314119
     -2.997998     27.940617     27.940617     55.881233
     -2.987988     23.097088     23.097088     46.194176
     -2.977978     18.678470     18.678470     37.356941
     -2.967968     15.290203     15.290203     30.580406
     -2.957958     13.482597     13.482597     26.965195
     -2.947948     13.632774     13.632774     27.265547
     -2.937938     15.847186     15.847186     31.694373
     -2.927928     19.904601     19.904601     39.809202
     -2.917918     25.255429     25.255429     50.510858
     -2.907908     31.092911     31.092911     62.185822
     -2.897898     36.501169     36.501169     73.002338
     -2.887888     40.657414     40.657414     81.314827
     -2.877878     43.031430     43.031430     86.062861
     -2.867868     43.508359     43.508359     87.016718
     -2.857858     42.379312     42.379312     84.758624
     -2.847848     40.196586     40.196586     80.393171
     -2.837838     37.551754     37.551754     75.103509
     -2.827828     34.872425     34.872425     69.744850
     -2.817818     32.324277     32.324277     64.648553
     -2.807808     29.851648     29.851648     59.703296
     -2.797798     27.319755     27.319755     54.639510
     -2.787788     24.672380     24.672380     49.344759
     -2.777778     22.017248     22.017248     44.034496
     -2.767768     19.597717     19.597717     39.195435
     -2.757758     17.677115     17.677115     35.354231
     -2.747748     16.412183     16.412183     32.824365
     -2.737738     15.795189     15.795189     31.590378
     -2.727728     15.698190     15.698190     31.396380
     -2.717718     15.985351     15.985351     31.970701
     -2.707708     16.613128     16.613128     33.226256
     -2.697698     17.645129     17.645129     35.290258
     -2.687688     19.166914     19.166914     38.333829
     -2.677678     21.158629     21.158629     42.317257
     -2.667668     23.419623     23.419623     46.839246
     -2.657658     25.610336     25.610336     51.220672
     -2.647648     27.398474     27.398474     54.796947
     -2.637638     28.622039     28.622039     57.244079
     -2.627628     29.365006     29.365006     58.730012
     -2.617618     29.896745     29.896745     59.793490
     -2.607608     30.514942     30.514942     61.029884
     -2.597598     31.389545     31.389545     62.779090
     -2.587588     32.492454     32.492454     64.984909
     -2.577578     33.629864     33.629864     67.259728
     -2.567568     34.528450     34.528450     69.056900
     -2.557558     34.912423     34.912423     69.824846
     -2.547548     34.546965     34.546965     69.093929
     -2.537538     33.270636     33.270636     66.541273
     -2.527528     31.048483     31.048483     62.096965
     -2.517518     28.042262     28.042262     56.084523
     -2.507508     24.651160     24.651160     49.302320
     -2.497497     21.468901     21.468901     42.937803
     -2.487487     19.142758     19.142758     38.285515
     -2.477477     18.178926     18.178926     36.357852
     -2.467467     18.776478     18.776478     37.552957
     -2.457457     20.765836     20.765836     41.531672
     -2.447447     23.682749     23.682749     47.365499
     -2.437437     26.948713     26.948713     53.897426
     -2.427427     30.080730     30.080730     60.161460
     -2.417417     32.838317     32.838317     65.676634
     -2.407407     35.241956     35.241956     70.483912
     -2.397397     37.455831     37.455831     74.911661
     -2.387387     39.593337     39.593337     79.186674
     -2.377377     41.545254     41.545254     83.090507
     -2.367367     42.925453     42.925453     85.850907
     -2.357357     43.176304     43.176304     86.352608
     -2.347347     41.797478     41.797478     83.594955
     -2.337337     38.595896     38.595896     77.191793
     -2.327327     33.837694     33.837694     67.675388
     -2.317317     28.228223     28.228223     56.456445
     -2.307307     22.729542     22.729542     45.459085
     -2.297297     18.298304     18.298304     36.596608
     -2.287287     15.650229     15.650229     31.300457
     -2.277277     15.125785     15.125785     30.251570
     -2.267267     16.674533     16.674533     33.349067
     -2.257257     19.929560     19.929560     39.859120
     -2.247247     24.325956     24.325956     48.651911
     -2.237237     29.222603     29.222603     58.445205
     -2.227227     34.000288     34.000288     68.000575
     -2.217217     38.123302     38.123302     76.246604
     -2.207207     41.166142     41.166142     82.332284
     -2.197197     42.821245     42.821245     85.642489
     -2.187187     42.911139     42.911139     85.822278
     -2.177177     41.419621     41.419621     82.839243
     -2.167167     38.531238     38.531238     77.062475
     -2.157157     34.642089     34.642089     69.284178
     -2.147147     30.301995     30.301995     60.603989
     -2.137137     26.080552     26.080552     52.161104
     -2.127127     22.401631     22.401631     44.803263
     -2.117117     19.424682     19.424682     38.849364
     -2.107107     17.036617     17.036617     34.073235
     -2.097097     14.959247     14.959247     29.918494
     -2.087087     12.912698     12.912698     25.825396
     -2.077077     10.748726     10.748726     21.497452
     -2.067067      8.494351      8.494351     16.988702
     -2.057057      6.303444      6.303444     12.606888
     -2.047047      4.361718      4.361718      8.723436
     -2.037037      2.802449      2.802449      5.604898
     -2.027027      1.668186      1.668186      3.336371
     -2.017017      0.920153      0.920153      1.840307
     -2.007007      0.474575      0.474575      0.949149
     -1.996997      0.241872      0.241872      0.483744
     -1.986987      0.154672      0.154672      0.309344
     -1.976977      0.182527      0.182527      0.365055
     -1.966967      0.337683      0.337683      0.675367
     -1.956957      0.675664      0.675664      1.351327
     -1.946947      1.289846      1.289846      2.579692
     -1.936937      2.295186      2.295186      4.590372
     -1.926927      3.796822      3.796822      7.593643
     -1.916917      5.846074      5.846074     11.692147
     -1.906907      8.396731      8.396731     16.793463
     -1.896897     11.281824     11.281824     22.563648
     -1.886887     14.228549     14.228549     28.457098
     -1.876877     16.915488     16.915488     33.830976
     -1.866867     19.058248     19.058248     38.116497
     -1.856857     20.496722     20.496722     40.993445
     -1.846847     21.253977     21.253977     42.507954
     -1.836837     21.541587     21.541587     43.083175
     -1.826827     21.696919     21.696919     43.393838
     -1.816817     22.057262     22.057262     44.114524
     -1.806807     22.805704     22.805704     45.611407
     -1.796797     23.853248     23.853248     47.706495
     -1.786787     24.826346     24.826346     49.652692
     -1.776777     25.189927     25.189927     50.379854
     -1.766767     24.464817     24.464817     48.929633
     -1.756757     22.438528     22.438528     44.877055
     -1.746747     19.264614     19.264614     38.529228
     -1.736737     15.405968     15.405968     30.811935
     -1.726727     11.462735     11.462735     22.925471
     -1.716717      7.979755      7.979755     15.959510
     -1.706707      5.321205      5.321205     10.642409
     -1.696697      3.645764      3.645764      7.291528
     -1.686687      2.955676      2.955676      5.911352
     -1.676677      3.163457      3.163457      6.326915
     -1.666667      4.129939      4.129939      8.259878
     -1.656657      5.661899      5.661899     11.323798
     -1.646647      7.492594      7.492594     14.985188
     -1.636637      9.284174      9.284174     18.568347
     -1.626627     10.679499     10.679499     21.358997
