# EIG2DOS: Utility for SIESTA to obtain the electronic density of states
#  E. Artacho, Apr 1999, A. Garcia, Apr 2012
#  Nick R. Papior, Feb 2017
# ------------------------------------------
# Eigenvalues calculated from a non-polarized calculation
# Eigenvalues read from siesta.EIG
# Kpoint weights read from siesta.KP
# Using smearing parameter:   0.0500
# Using 1000 points in the energy range
# Selected bands: 1 to: 2981
# Emin, Emax in file for selected band(s):    -27.1900106    218.3472010
# Nbands, Nspin, Nk   =   2981     1     1
# E_F                 =    -4.2643 eV --> (shifted to ZERO)
# Broadening          =     0.0500 eV
#
#        E            N(up)  (=)   N(down)         Ntot
     -5.000000     33.227472     33.227472     66.454943
     -4.989990     37.121656     37.121656     74.243312
     -4.979980     40.642756     40.642756     81.285511
     -4.969970     43.213933     43.213933     86.427866
     -4.959960     44.379967     44.379967     88.759934
     -4.949950     43.936948     43.936948     87.873897
     -4.939940     41.997913     41.997913     83.995826
     -4.929930     38.979270     38.979270     77.958540
     -4.919920     35.527951     35.527951     71.055901
     -4.909910     32.421447     32.421447     64.842894
     -4.899900     30.456744     30.456744     60.913488
     -4.889890     30.318981     30.318981     60.637963
     -4.879880     32.417390     32.417390     64.834781
     -4.869870     36.710135     36.710135     73.420270
     -4.859860     42.590961     42.590961     85.181922
     -4.849850     48.932062     48.932062     97.864123
     -4.839840     54.332237     54.332237    108.664473
     -4.829830     57.517136     57.517136    115.034272
     -4.819820     57.739421     57.739421    115.478843
     -4.809810     55.002153     55.002153    110.004307
     -4.799800     50.005885     50.005885    100.011770
     -4.789790     43.856350     43.856350     87.712701
     -4.779780     37.680613     37.680613     75.361227
     -4.769770     32.319845     32.319845     64.639690
     -4.759760     28.196368     28.196368     56.392735
     -4.749750     25.349427     25.349427     50.698854
     -4.739740     23.564621     23.564621     47.129241
     -4.729730     22.513351     22.513351     45.026703
     -4.719720     21.852646     21.852646     43.705292
     -4.709710     21.276845     21.276845     42.553690
     -4.699700     20.538730     20.538730     41.077459
     -4.689690     19.464993     19.464993     38.929987
     -4.679680     17.984063     17.984063     35.968126
     -4.669670     16.168054     16.168054     32.336108
     -4.659660     14.272319     14.272319     28.544638
     -4.649650     12.745582     12.745582     25.491164
     -4.639640     12.187176     12.187176     24.374352
     -4.629630     13.242362     13.242362     26.484724
     -4.619620     16.444616     16.444616     32.889232
     -4.609610     22.032341     22.032341     44.064683
     -4.599600     29.788032     29.788032     59.576063
     -4.589590     38.965363     38.965363     77.930725
     -4.579580     48.366599     48.366599     96.733198
     -4.569570     56.591906     56.591906    113.183811
     -4.559560     62.408538     62.408538    124.817076
     -4.549550     65.116403     65.116403    130.232805
     -4.539540     64.762880     64.762880    129.525760
     -4.529530     62.107893     62.107893    124.215786
     -4.519520     58.342422     58.342422    116.684844
     -4.509510     54.670023     54.670023    109.340047
     -4.499499     51.918099     51.918099    103.836198
     -4.489489     50.326092     50.326092    100.652184
     -4.479479     49.573122     49.573122     99.146244
     -4.469469     49.001791     49.001791     98.003582
     -4.459459     47.920273     47.920273     95.840547
     -4.449449     45.853815     45.853815     91.707629
     -4.439439     42.665702     42.665702     85.331404
     -4.429429     38.542226     38.542226     77.084452
     -4.419419     33.893572     33.893572     67.787143
     -4.409409     29.236906     29.236906     58.473811
     -4.399399     25.102070     25.102070     50.204141
     -4.389389     21.961209     21.961209     43.922419
     -4.379379     20.162688     20.162688     40.325377
     -4.369369     19.860577     19.860577     39.721154
     -4.359359     20.960325     20.960325     41.920650
     -4.349349     23.119811     23.119811     46.239623
     -4.339339     25.831650     25.831650     51.663299
     -4.329329     28.572430     28.572430     57.144860
     -4.319319     30.964409     30.964409     61.928818
     -4.309309     32.882793     32.882793     65.765586
     -4.299299     34.464482     34.464482     68.928963
     -4.289289     36.015885     36.015885     72.031770
     -4.279279     37.854326     37.854326     75.708652
     -4.269269     40.136984     40.136984     80.273968
     -4.259259     42.735608     42.735608     85.471215
     -4.249249     45.209284     45.209284     90.418568
     -4.239239     46.906650     46.906650     93.813301
     -4.229229     47.184612     47.184612     94.369225
     -4.219219     45.670437     45.670437     91.340875
     -4.209209     42.451293     42.451293     84.902587
     -4.199199     38.089175     38.089175     76.178349
     -4.189189     33.438081     33.438081     66.876162
     -4.179179     29.343740     29.343740     58.687481
     -4.169169     26.368796     26.368796     52.737592
     -4.159159     24.667645     24.667645     49.335290
     -4.149149     24.049679     24.049679     48.099358
     -4.139139     24.173222     24.173222     48.346443
     -4.129129     24.758090     24.758090     49.516180
     -4.119119     25.710929     25.710929     51.421859
     -4.109109     27.109049     27.109049     54.218098
     -4.099099     29.058046     29.058046     58.116092
     -4.089089     31.501035     31.501035     63.002071
     -4.079079     34.089711     34.089711     68.179421
     -4.069069     36.208961     36.208961     72.417922
     -4.059059     37.173270     37.173270     74.346539
     -4.049049     36.515011     36.515011     73.030022
     -4.039039     34.220099     34.220099     68.440199
     -4.029029     30.783261     30.783261     61.566522
     -4.019019     27.050504     27.050504     54.101008
     -4.009009     23.931514     23.931514     47.863027
     -3.998999     22.126107     22.126107     44.252215
     -3.988989     21.981614     21.981614     43.963227
     -3.978979     23.508701     23.508701     47.017401
     -3.968969     26.496128     26.496128     52.992256
     -3.958959     30.633963     30.633963     61.267925
     -3.948949     35.587736     35.587736     71.175472
     -3.938939     41.025193     41.025193     82.050387
     -3.928929     46.632853     46.632853     93.265705
     -3.918919     52.148128     52.148128    104.296255
     -3.908909     57.392884     57.392884    114.785768
     -3.898899     62.267622     62.267622    124.535243
     -3.888889     66.680465     66.680465    133.360929
     -3.878879     70.433959     70.433959    140.867917
     -3.868869     73.138394     73.138394    146.276788
     -3.858859     74.226123     74.226123    148.452246
     -3.848849     73.096867     73.096867    146.193734
     -3.838839     69.352267     69.352267    138.704535
     -3.828829     63.020286     63.020286    126.040573
     -3.818819     54.661198     54.661198    109.322396
     -3.808809     45.294075     45.294075     90.588149
     -3.798799     36.161172     36.161172     72.322344
     -3.788789     28.415791     28.415791     56.831582
     -3.778779     22.844065     22.844065     45.688130
     -3.768769     19.707009     19.707009     39.414019
     -3.758759     18.736654     18.736654     37.473307
     -3.748749     19.268203     19.268203     38.536406
     -3.738739     20.457744     20.457744     40.915488
     -3.728729     21.524331     21.524331     43.048662
     -3.718719     21.958831     21.958831     43.917661
     -3.708709     21.652366     21.652366     43.304733
     -3.698699     20.912525     20.912525     41.825050
     -3.688689     20.357251     20.357251     40.714503
     -3.678679     20.705879     20.705879     41.411759
     -3.668669     22.520512     22.520512     45.041024
     -3.658659     25.978290     25.978290     51.956581
     -3.648649     30.759614     30.759614     61.519229
     -3.638639     36.105785     36.105785     72.211570
     -3.628629     41.035055     41.035055     82.070110
     -3.618619     44.635804     44.635804     89.271607
     -3.608609     46.319684     46.319684     92.639369
     -3.598599     45.941332     45.941332     91.882664
     -3.588589     43.761580     43.761580     87.523160
     -3.578579     40.302551     40.302551     80.605102
     -3.568569     36.172580     36.172580     72.345161
     -3.558559     31.920060     31.920060     63.840120
     -3.548549     27.937950     27.937950     55.875900
     -3.538539     24.418742     24.418742     48.837485
     -3.528529     21.359813     21.359813     42.719627
     -3.518519     18.621568     18.621568     37.243136
     -3.508509     16.027365     16.027365     32.054730
     -3.498498     13.470596     13.470596     26.941192
     -3.488488     10.983398     10.983398     21.966797
     -3.478478      8.737819      8.737819     17.475638
     -3.468468      6.983966      6.983966     13.967932
     -3.458458      5.956839      5.956839     11.913678
     -3.448448      5.788948      5.788948     11.577895
     -3.438438      6.454415      6.454415     12.908831
     -3.428428      7.757307      7.757307     15.514615
     -3.418418      9.369912      9.369912     18.739825
     -3.408408     10.919699     10.919699     21.839398
     -3.398398     12.107923     12.107923     24.215845
     -3.388388     12.821687     12.821687     25.643374
     -3.378378     13.191310     13.191310     26.382619
     -3.368368     13.560925     13.560925     27.121850
     -3.358358     14.378569     14.378569     28.757138
     -3.348348     16.048907     16.048907     32.097813
     -3.338338     18.802371     18.802371     37.604742
     -3.328328     22.614511     22.614511     45.229022
     -3.318318     27.179792     27.179792     54.359585
     -3.308308     31.932057     31.932057     63.864115
     -3.298298     36.115323     36.115323     72.230646
     -3.288288     38.920592     38.920592     77.841184
     -3.278278     39.687313     39.687313     79.374626
     -3.268268     38.120362     38.120362     76.240724
     -3.258258     34.431174     34.431174     68.862348
     -3.248248     29.319592     29.319592     58.639185
     -3.238238     23.780237     23.780237     47.560474
     -3.228228     18.803979     18.803979     37.607957
     -3.218218     15.094891     15.094891     30.189782
     -3.208208     12.908496     12.908496     25.816992
     -3.198198     12.056334     12.056334     24.112668
     -3.188188     12.055072     12.055072     24.110144
     -3.178178     12.354638     12.354638     24.709276
     -3.168168     12.565249     12.565249     25.130498
     -3.158158     12.611286     12.611286     25.222572
     -3.148148     12.764462     12.764462     25.528923
     -3.138138     13.544834     13.544834     27.089667
     -3.128128     15.518250     15.518250     31.036499
     -3.118118     19.052506     19.052506     38.105011
     -3.108108     24.112942     24.112942     48.225885
     -3.098098     30.175401     30.175401     60.350802
     -3.088088     36.305553     36.305553     72.611106
     -3.078078     41.398324     41.398324     82.796648
     -3.068068     44.503086     44.503086     89.006171
     -3.058058     45.110825     45.110825     90.221651
     -3.048048     43.283266     43.283266     86.566532
     -3.038038     39.571494     39.571494     79.142988
     -3.028028     34.772594     34.772594     69.545188
     -3.018018     29.649282     29.649282     59.298565
     -3.008008     24.743102     24.743102     49.486204
     -2.997998     20.345470     20.345470     40.690940
     -2.987988     16.598256     16.598256     33.196512
     -2.977978     13.634362     13.634362     27.268724
     -2.967968     11.668234     11.668234     23.336467
     -2.957958     10.992147     10.992147     21.984294
     -2.947948     11.888592     11.888592     23.777184
     -2.937938     14.502693     14.502693     29.005385
     -2.927928     18.726636     18.726636     37.453271
     -2.917918     24.141204     24.141204     48.282409
     -2.907908     30.045633     30.045633     60.091266
     -2.897898     35.584368     35.584368     71.168736
     -2.887888     39.945729     39.945729     79.891458
     -2.877878     42.571824     42.571824     85.143649
     -2.867868     43.301153     43.301153     86.602307
     -2.857858     42.382114     42.382114     84.764227
     -2.847848     40.346283     40.346283     80.692566
     -2.837838     37.792761     37.792761     75.585522
     -2.827828     35.176796     35.176796     70.353592
     -2.817818     32.693518     32.693518     65.387035
     -2.807808     30.299843     30.299843     60.599687
     -2.797798     27.848198     27.848198     55.696397
     -2.787788     25.251002     25.251002     50.502004
     -2.777778     22.584331     22.584331     45.168663
     -2.767768     20.078382     20.078382     40.156763
     -2.757758     18.009330     18.009330     36.018659
     -2.747748     16.563872     16.563872     33.127744
     -2.737738     15.761257     15.761257     31.522514
     -2.727728     15.479627     15.479627     30.959253
     -2.717718     15.566202     15.566202     31.132405
     -2.707708     15.955714     15.955714     31.911429
     -2.697698     16.714456     16.714456     33.428912
     -2.687688     17.975501     17.975501     35.951001
     -2.677678     19.804781     19.804781     39.609562
     -2.667668     22.089104     22.089104     44.178207
     -2.657658     24.528907     24.528907     49.057813
     -2.647648     26.752377     26.752377     53.504755
     -2.637638     28.485996     28.485996     56.971991
     -2.627628     29.676086     29.676086     59.352172
     -2.617618     30.486722     30.486722     60.973445
     -2.607608     31.180672     31.180672     62.361343
     -2.597598     31.963401     31.963401     63.926803
     -2.587588     32.883052     32.883052     65.766103
     -2.577578     33.827307     33.827307     67.654614
     -2.567568     34.587788     34.587788     69.175576
     -2.557558     34.930999     34.930999     69.861997
     -2.547548     34.640465     34.640465     69.280930
     -2.537538     33.543812     33.543812     67.087624
     -2.527528     31.559739     31.559739     63.119477
     -2.517518     28.772662     28.772662     57.545325
     -2.507508     25.495130     25.495130     50.990260
     -2.497497     22.257573     22.257573     44.515145
     -2.487487     19.694775     19.694775     39.389551
     -2.477477     18.358798     18.358798     36.717597
     -2.467467     18.536604     18.536604     37.073209
     -2.457457     20.156321     20.156321     40.312641
     -2.447447     22.827545     22.827545     45.655090
     -2.437437     26.000227     26.000227     52.000454
     -2.427427     29.172630     29.172630     58.345260
     -2.417417     32.055415     32.055415     64.110829
     -2.407407     34.617316     34.617316     69.234632
     -2.397397     36.992326     36.992326     73.984652
     -2.387387     39.295558     39.295558     78.591116
     -2.377377     41.443261     41.443261     82.886521
     -2.367367     43.076481     43.076481     86.152963
     -2.357357     43.642032     43.642032     87.284064
     -2.347347     42.607554     42.607554     85.215107
     -2.337337     39.716518     39.716518     79.433035
     -2.327327     35.162482     35.162482     70.324963
     -2.317317     29.597517     29.597517     59.195034
     -2.307307     23.969685     23.969685     47.939370
     -2.297297     19.263102     19.263102     38.526205
     -2.287287     16.247923     16.247923     32.495846
     -2.277277     15.324632     15.324632     30.649263
     -2.267267     16.491549     16.491549     32.983098
     -2.257257     19.413369     19.413369     38.826739
     -2.247247     23.543854     23.543854     47.087708
     -2.237237     28.256204     28.256204     56.512408
     -2.227227     32.947499     32.947499     65.894998
     -2.217217     37.099989     37.099989     74.199979
     -2.207207     40.300264     40.300264     80.600529
     -2.197197     42.235495     42.235495     84.470990
     -2.187187     42.696160     42.696160     85.392321
     -2.177177     41.606453     41.606453     83.212905
     -2.167167     39.075590     39.075590     78.151179
     -2.157157     35.431232     35.431232     70.862463
     -2.147147     31.186464     31.186464     62.372927
     -2.137137     26.920659     26.920659     53.841317
     -2.127127     23.109598     23.109598     46.219196
     -2.117117     19.983637     19.983637     39.967275
     -2.107107     17.488838     17.488838     34.977676
     -2.097097     15.371816     15.371816     30.743631
     -2.087087     13.339562     13.339562     26.679124
     -2.077077     11.207533     11.207533     22.415066
     -2.067067      8.965843      8.965843     17.931685
     -2.057057      6.748193      6.748193     13.496385
     -2.047047      4.741640      4.741640      9.483281
     -2.037037      3.095743      3.095743      6.191486
     -2.027027      1.873101      1.873101      3.746202
     -2.017017      1.049854      1.049854      2.099709
     -2.007007      0.548494      0.548494      1.096987
     -1.996997      0.278153      0.278153      0.556306
     -1.986987      0.165639      0.165639      0.331278
     -1.976977      0.172849      0.172849      0.345699
     -1.966967      0.304120      0.304120      0.608241
     -1.956957      0.607741      0.607741      1.215481
     -1.946947      1.171764      1.171764      2.343528
     -1.936937      2.109803      2.109803      4.219606
     -1.926927      3.532072      3.532072      7.064145
     -1.916917      5.502751      5.502751     11.005501
     -1.906907      7.994938      7.994938     15.989875
     -1.896897     10.862928     10.862928     21.725855
     -1.886887     13.850952     13.850952     27.701904
     -1.876877     16.645341     16.645341     33.290682
     -1.866867     18.958442     18.958442     37.916885
     -1.856857     20.617294     20.617294     41.234587
     -1.846847     21.624641     21.624641     43.249282
     -1.836837     22.164808     22.164808     44.329615
     -1.826827     22.540288     22.540288     45.080577
     -1.816817     23.047375     23.047375     46.094749
     -1.806807     23.829462     23.829462     47.658923
     -1.796797     24.772742     24.772742     49.545483
     -1.786787     25.508090     25.508090     51.016180
     -1.776777     25.540498     25.540498     51.080996
     -1.766767     24.458489     24.458489     48.916977
     -1.756757     22.123628     22.123628     44.247255
     -1.746747     18.744623     18.744623     37.489246
     -1.736737     14.803557     14.803557     29.607115
     -1.726727     10.882343     10.882343     21.764687
     -1.716717      7.482846      7.482846     14.965691
     -1.706707      4.920186      4.920186      9.840372
     -1.696697      3.313797      3.313797      6.627594
     -1.686687      2.645263      2.645263      5.290525
     -1.676677      2.827207      2.827207      5.654413
     -1.666667      3.739214      3.739214      7.478429
     -1.656657      5.220054      5.220054     10.440108
     -1.646647      7.038939      7.038939     14.077878
     -1.636637      8.885125      8.885125     17.770250
     -1.626627     10.406827     10.406827     20.813654
