# EIG2DOS: Utility for SIESTA to obtain the electronic density of states
#  E. Artacho, Apr 1999, A. Garcia, Apr 2012
#  Nick R. Papior, Feb 2017
# ------------------------------------------
# Eigenvalues calculated from a non-polarized calculation
# Eigenvalues read from siesta.EIG
# Kpoint weights read from siesta.KP
# Using smearing parameter:   0.0500
# Using 1000 points in the energy range
# Selected bands: 1 to: 2981
# Emin, Emax in file for selected band(s):    -27.0431385    218.3157380
# Nbands, Nspin, Nk   =   2981     1     1
# E_F                 =    -4.2956 eV --> (shifted to ZERO)
# Broadening          =     0.0500 eV
#
#        E            N(up)  (=)   N(down)         Ntot
     -5.000000     44.635425     44.635425     89.270851
     -4.989990     48.687550     48.687550     97.375100
     -4.979980     51.230571     51.230571    102.461142
     -4.969970     51.979392     51.979392    103.958784
     -4.959960     50.927332     50.927332    101.854665
     -4.949950     48.333172     48.333172     96.666343
     -4.939940     44.651142     44.651142     89.302284
     -4.929930     40.446810     40.446810     80.893619
     -4.919920     36.336606     36.336606     72.673212
     -4.909910     32.958835     32.958835     65.917671
     -4.899900     30.948174     30.948174     61.896349
     -4.889890     30.866889     30.866889     61.733778
     -4.879880     33.062896     33.062896     66.125791
     -4.869870     37.479303     37.479303     74.958605
     -4.859860     43.505768     43.505768     87.011536
     -4.849850     49.989814     49.989814     99.979628
     -4.839840     55.476818     55.476818    110.953636
     -4.829830     58.630274     58.630274    117.260547
     -4.819820     58.666178     58.666178    117.332357
     -4.809810     55.600851     55.600851    111.201702
     -4.799800     50.195761     50.195761    100.391522
     -4.789790     43.638577     43.638577     87.277155
     -4.779780     37.126698     37.126698     74.253395
     -4.769770     31.540626     31.540626     63.081252
     -4.759760     27.311107     27.311107     54.622214
     -4.749750     24.466569     24.466569     48.933138
     -4.739740     22.773628     22.773628     45.547256
     -4.729730     21.880975     21.880975     43.761949
     -4.719720     21.419343     21.419343     42.838686
     -4.709710     21.054330     21.054330     42.108660
     -4.699700     20.511493     20.511493     41.022985
     -4.689690     19.595946     19.595946     39.191893
     -4.679680     18.220865     18.220865     36.441730
     -4.669670     16.445987     16.445987     32.891975
     -4.659660     14.512196     14.512196     29.024392
     -4.649650     12.848485     12.848485     25.696970
     -4.639640     12.029395     12.029395     24.058789
     -4.629630     12.673314     12.673314     25.346627
     -4.619620     15.288952     15.288952     30.577904
     -4.609610     20.096055     20.096055     40.192110
     -4.599600     26.868056     26.868056     53.736113
     -4.589590     34.863567     34.863567     69.727134
     -4.579580     42.911933     42.911933     85.823866
     -4.569570     49.675712     49.675712     99.351423
     -4.559560     54.033340     54.033340    108.066681
     -4.549550     55.446772     55.446772    110.893545
     -4.539540     54.155027     54.155027    108.310053
     -4.529530     51.093978     51.093978    102.187956
     -4.519520     47.562140     47.562140     95.124279
     -4.509510     44.767950     44.767950     89.535901
     -4.499499     43.443171     43.443171     86.886343
     -4.489489     43.666738     43.666738     87.333476
     -4.479479     44.941445     44.941445     89.882891
     -4.469469     46.458453     46.458453     92.916905
     -4.459459     47.421752     47.421752     94.843504
     -4.449449     47.305755     47.305755     94.611510
     -4.439439     45.970127     45.970127     91.940254
     -4.429429     43.625059     43.625059     87.250117
     -4.419419     40.696246     40.696246     81.392492
     -4.409409     37.663280     37.663280     75.326559
     -4.399399     34.934687     34.934687     69.869373
     -4.389389     32.788226     32.788226     65.576453
     -4.379379     31.366400     31.366400     62.732800
     -4.369369     30.695617     30.695617     61.391235
     -4.359359     30.702865     30.702865     61.405731
     -4.349349     31.227359     31.227359     62.454718
     -4.339339     32.044796     32.044796     64.089592
     -4.329329     32.920318     32.920318     65.840636
     -4.319319     33.683957     33.683957     67.367913
     -4.309309     34.298140     34.298140     68.596281
     -4.299299     34.880998     34.880998     69.761995
     -4.289289     35.665922     35.665922     71.331845
     -4.279279     36.904404     36.904404     73.808807
     -4.269269     38.740547     38.740547     77.481094
     -4.259259     41.097843     41.097843     82.195685
     -4.249249     43.624191     43.624191     87.248381
     -4.239239     45.736435     45.736435     91.472870
     -4.229229     46.778516     46.778516     93.557033
     -4.219219     46.254372     46.254372     92.508744
     -4.209209     44.041214     44.041214     88.082427
     -4.199199     40.473591     40.473591     80.947182
     -4.189189     36.240461     36.240461     72.480922
     -4.179179     32.135125     32.135125     64.270250
     -4.169169     28.779829     28.779829     57.559659
     -4.159159     26.457540     26.457540     52.915079
     -4.149149     25.117609     25.117609     50.235218
     -4.139139     24.526041     24.526041     49.052081
     -4.129129     24.463121     24.463121     48.926243
     -4.119119     24.861009     24.861009     49.722018
     -4.109109     25.813990     25.813990     51.627980
     -4.099099     27.459298     27.459298     54.918596
     -4.089089     29.791542     29.791542     59.583083
     -4.079079     32.515592     32.515592     65.031185
     -4.069069     35.037781     35.037781     70.075562
     -4.059059     36.632783     36.632783     73.265566
     -4.049049     36.725962     36.725962     73.451923
     -4.039039     35.153815     35.153815     70.307631
     -4.029029     32.263865     32.263865     64.527731
     -4.019019     28.799456     28.799456     57.598911
     -4.009009     25.633742     25.633742     51.267485
     -3.998999     23.493101     23.493101     46.986201
     -3.988989     22.796341     22.796341     45.592682
     -3.978979     23.649875     23.649875     47.299750
     -3.968969     25.945476     25.945476     51.890953
     -3.958959     29.468774     29.468774     58.937548
     -3.948949     33.957933     33.957933     67.915865
     -3.938939     39.115752     39.115752     78.231504
     -3.928929     44.619334     44.619334     89.238667
     -3.918919     50.160547     50.160547    100.321094
     -3.908909     55.504511     55.504511    111.009023
     -3.898899     60.516513     60.516513    121.033026
     -3.888889     65.114584     65.114584    130.229169
     -3.878879     69.154142     69.154142    138.308285
     -3.868869     72.308668     72.308668    144.617335
     -3.858859     74.034931     74.034931    148.069862
     -3.848849     73.680649     73.680649    147.361299
     -3.838839     70.718196     70.718196    141.436391
     -3.828829     65.010196     65.010196    130.020391
     -3.818819     56.978682     56.978682    113.957365
     -3.808809     47.583775     47.583775     95.167551
     -3.798799     38.104586     38.104586     76.209171
     -3.788789     29.805335     29.805335     59.610670
     -3.778779     23.614114     23.614114     47.228228
     -3.768769     19.922774     19.922774     39.845547
     -3.758759     18.555593     18.555593     37.111186
     -3.748749     18.890460     18.890460     37.780921
     -3.738739     20.077101     20.077101     40.154202
     -3.728729     21.286455     21.286455     42.572910
     -3.718719     21.931996     21.931996     43.863992
     -3.708709     21.815879     21.815879     43.631758
     -3.698699     21.166737     21.166737     42.333473
     -3.688689     20.554917     20.554917     41.109834
     -3.678679     20.698403     20.698403     41.396807
     -3.668669     22.206697     22.206697     44.413394
     -3.658659     25.340350     25.340350     50.680700
     -3.648649     29.873775     29.873775     59.747550
     -3.638639     35.123124     35.123124     70.246248
     -3.628629     40.139490     40.139490     80.278981
     -3.618619     43.994948     43.994948     87.989896
     -3.608609     46.045690     46.045690     92.091380
     -3.598599     46.072300     46.072300     92.144600
     -3.588589     44.264150     44.264150     88.528299
     -3.578579     41.089283     41.089283     82.178567
     -3.568569     37.126445     37.126445     74.252891
     -3.558559     32.920522     32.920522     65.841044
     -3.548549     28.884635     28.884635     57.769270
     -3.538539     25.248176     25.248176     50.496351
     -3.528529     22.050552     22.050552     44.101104
     -3.518519     19.186010     19.186010     38.372020
     -3.508509     16.494079     16.494079     32.988158
     -3.498498     13.865434     13.865434     27.730868
     -3.488488     11.317548     11.317548     22.635096
     -3.478478      9.006383      9.006383     18.012765
     -3.468468      7.173028      7.173028     14.346056
     -3.458458      6.053865      6.053865     12.107730
     -3.448448      5.791649      5.791649     11.583298
     -3.438438      6.375313      6.375313     12.750626
     -3.428428      7.622980      7.622980     15.245959
     -3.418418      9.214863      9.214863     18.429726
     -3.408408     10.775780     10.775780     21.551560
     -3.398398     11.992000     11.992000     23.984001
     -3.388388     12.725929     12.725929     25.451858
     -3.378378     13.080409     13.080409     26.160818
     -3.368368     13.378058     13.378058     26.756116
     -3.358358     14.058326     14.058326     28.116651
     -3.348348     15.533484     15.533484     31.066969
     -3.338338     18.058194     18.058194     36.116388
     -3.328328     21.648337     21.648337     43.296674
     -3.318318     26.052809     26.052809     52.105617
     -3.308308     30.766072     30.766072     61.532143
     -3.298298     35.080512     35.080512     70.161025
     -3.288288     38.195943     38.195943     76.391885
     -3.278278     39.396056     39.396056     78.792111
     -3.268268     38.258242     38.258242     76.516485
     -3.258258     34.814574     34.814574     69.629148
     -3.248248     29.576085     29.576085     59.152169
     -3.238238     23.389426     23.389426     46.778852
     -3.228228     17.181870     17.181870     34.363740
     -3.218218     11.707379     11.707379     23.414758
     -3.208208      7.395771      7.395771     14.791542
     -3.198198      4.342664      4.342664      8.685327
     -3.188188      2.407884      2.407884      4.815767
     -3.178178      1.355258      1.355258      2.710516
     -3.168168      0.974705      0.974705      1.949410
     -3.158158      1.157446      1.157446      2.314891
     -3.148148      1.921242      1.921242      3.842484
     -3.138138      3.392913      3.392913      6.785826
     -3.128128      5.754614      5.754614     11.509229
     -3.118118      9.160498      9.160498     18.320996
     -3.108108     13.639319     13.639319     27.278639
     -3.098098     19.013403     19.013403     38.026806
     -3.088088     24.872456     24.872456     49.744912
     -3.078078     30.628711     30.628711     61.257422
     -3.068068     35.645750     35.645750     71.291501
     -3.058058     39.393337     39.393337     78.786674
     -3.048048     41.561761     41.561761     83.123521
     -3.038038     42.089925     42.089925     84.179850
     -3.028028     41.112796     41.112796     82.225593
     -3.018018     38.880900     38.880900     77.761801
     -3.008008     35.711646     35.711646     71.423292
     -2.997998     31.993280     31.993280     63.986559
     -2.987988     28.208961     28.208961     56.417922
     -2.977978     24.924724     24.924724     49.849448
     -2.967968     22.709908     22.709908     45.419816
     -2.957958     22.010355     22.010355     44.020709
     -2.947948     23.031111     23.031111     46.062222
     -2.937938     25.680416     25.680416     51.360831
     -2.927928     29.589747     29.589747     59.179494
     -2.917918     34.188513     34.188513     68.377026
     -2.907908     38.802139     38.802139     77.604279
     -2.897898     42.756831     42.756831     85.513661
     -2.887888     45.489335     45.489335     90.978671
     -2.877878     46.655380     46.655380     93.310761
     -2.867868     46.209196     46.209196     92.418392
     -2.857858     44.412744     44.412744     88.825488
     -2.847848     41.748868     41.748868     83.497736
     -2.837838     38.756339     38.756339     77.512678
     -2.827828     35.850589     35.850589     71.701178
     -2.817818     33.209950     33.209950     66.419900
     -2.807808     30.778988     30.778988     61.557977
     -2.797798     28.381404     28.381404     56.762807
     -2.787788     25.878005     25.878005     51.756009
     -2.777778     23.283057     23.283057     46.566113
     -2.767768     20.778069     20.778069     41.556137
     -2.757758     18.621872     18.621872     37.243743
     -2.747748     17.015859     17.015859     34.031718
     -2.737738     16.008533     16.008533     32.017067
     -2.727728     15.498096     15.498096     30.996192
     -2.717718     15.329678     15.329678     30.659356
     -2.707708     15.422364     15.422364     30.844727
     -2.697698     15.839626     15.839626     31.679251
     -2.687688     16.751012     16.751012     33.502024
     -2.677678     18.303379     18.303379     36.606757
     -2.667668     20.482130     20.482130     40.964260
     -2.657658     23.055190     23.055190     46.110381
     -2.647648     25.643688     25.643688     51.287377
     -2.637638     27.882938     27.882938     55.765877
     -2.627628     29.578036     29.578036     59.156072
     -2.617618     30.761682     30.761682     61.523363
     -2.607608     31.626781     31.626781     63.253563
     -2.597598     32.387002     32.387002     64.774005
     -2.587588     33.156528     33.156528     66.313055
     -2.577578     33.910883     33.910883     67.821766
     -2.567568     34.523182     34.523182     69.046364
     -2.557558     34.822709     34.822709     69.645417
     -2.547548     34.631359     34.631359     69.262718
     -2.537538     33.780776     33.780776     67.561553
     -2.527528     32.147057     32.147057     64.294113
     -2.517518     29.724876     29.724876     59.449753
     -2.507508     26.712538     26.712538     53.425076
     -2.497497     23.542690     23.542690     47.085379
     -2.487487     20.807980     20.807980     41.615961
     -2.477477     19.090150     19.090150     38.180301
     -2.467467     18.762992     18.762992     37.525984
     -2.457457     19.862468     19.862468     39.724936
     -2.447447     22.088257     22.088257     44.176514
     -2.437437     24.938343     24.938343     49.876686
     -2.427427     27.914857     27.914857     55.829714
     -2.417417     30.705117     30.705117     61.410234
     -2.407407     33.252588     33.252588     66.505176
     -2.397397     35.684760     35.684760     71.369520
     -2.387387     38.135500     38.135500     76.271000
     -2.377377     40.554490     40.554490     81.108980
     -2.367367     42.607681     42.607681     85.215362
     -2.357357     43.732475     43.732475     87.464950
     -2.347347     43.336983     43.336983     86.673966
     -2.337337     41.059629     41.059629     82.119258
     -2.327327     36.970799     36.970799     73.941597
     -2.317317     31.622078     31.622078     63.244155
     -2.307307     25.919685     25.919685     51.839369
     -2.297297     20.878214     20.878214     41.756428
     -2.287287     17.355913     17.355913     34.711825
     -2.277277     15.864338     15.864338     31.728677
     -2.267267     16.498506     16.498506     32.997013
     -2.257257     18.981455     18.981455     37.962910
     -2.247247     22.784150     22.784150     45.568299
     -2.237237     27.271726     27.271726     54.543452
     -2.227227     31.831744     31.831744     63.663489
     -2.217217     35.953169     35.953169     71.906337
     -2.207207     39.246228     39.246228     78.492457
     -2.197197     41.420931     41.420931     82.841861
     -2.187187     42.263637     42.263637     84.527275
     -2.177177     41.649607     41.649607     83.299214
     -2.167167     39.598455     39.598455     79.196911
     -2.157157     36.335618     36.335618     72.671236
     -2.147147     32.298974     32.298974     64.597949
     -2.137137     28.050600     28.050600     56.101200
     -2.127127     24.112099     24.112099     48.224198
     -2.117117     20.798987     20.798987     41.597973
     -2.107107     18.141752     18.141752     36.283505
     -2.097097     15.935652     15.935652     31.871303
     -2.087087     13.887609     13.887609     27.775217
     -2.077077     11.776748     11.776748     23.553496
     -2.067067      9.547377      9.547377     19.094755
     -2.057057      7.302368      7.302368     14.604736
     -2.047047      5.223376      5.223376     10.446752
     -2.037037      3.475291      3.475291      6.950581
     -2.027027      2.144063      2.144063      4.288126
     -2.017017      1.225351      1.225351      2.450702
     -2.007007      0.651496      0.651496      1.302991
     -1.996997      0.332081      0.332081      0.664162
     -1.986987      0.188425      0.188425      0.376851
     -1.976977      0.174622      0.174622      0.349244
     -1.966967      0.287155      0.287155      0.574309
     -1.956957      0.567393      0.567393      1.134786
     -1.946947      1.097934      1.097934      2.195867
     -1.936937      1.989205      1.989205      3.978410
     -1.926927      3.351662      3.351662      6.703323
     -1.916917      5.253895      5.253895     10.507790
     -1.906907      7.676734      7.676734     15.353468
     -1.896897     10.481979     10.481979     20.963958
     -1.886887     13.414511     13.414511     26.829023
     -1.876877     16.145302     16.145302     32.290604
     -1.866867     18.345531     18.345531     36.691063
     -1.856857     19.768759     19.768759     39.537517
     -1.846847     20.315270     20.315270     40.630540
     -1.836837     20.058695     20.058695     40.117390
     -1.826827     19.224071     19.224071     38.448142
     -1.816817     18.117381     18.117381     36.234763
     -1.806807     17.022344     17.022344     34.044689
     -1.796797     16.099400     16.099400     32.198800
     -1.786787     15.332157     15.332157     30.664314
     -1.776777     14.552991     14.552991     29.105983
     -1.766767     13.541628     13.541628     27.083255
     -1.756757     12.149735     12.149735     24.299469
     -1.746747     10.389625     10.389625     20.779249
     -1.736737      8.447836      8.447836     16.895673
     -1.726727      6.628372      6.628372     13.256743
     -1.716717      5.264312      5.264312     10.528624
     -1.706707      4.639791      4.639791      9.279583
     -1.696697      4.941536      4.941536      9.883072
     -1.686687      6.233161      6.233161     12.466321
     -1.676677      8.436801      8.436801     16.873602
     -1.666667     11.318423     11.318423     22.636845
     -1.656657     14.491307     14.491307     28.982613
     -1.646647     17.458829     17.458829     34.917657
     -1.636637     19.704896     19.704896     39.409793
     -1.626627     20.815522     20.815522     41.631044
