# EIG2DOS: Utility for SIESTA to obtain the electronic density of states
#  E. Artacho, Apr 1999, A. Garcia, Apr 2012
#  Nick R. Papior, Feb 2017
# ------------------------------------------
# Eigenvalues calculated from a non-polarized calculation
# Eigenvalues read from siesta.EIG
# Kpoint weights read from siesta.KP
# Using smearing parameter:   0.0500
# Using 1000 points in the energy range
# Selected bands: 1 to: 2981
# Emin, Emax in file for selected band(s):    -27.0585109    218.3307850
# Nbands, Nspin, Nk   =   2981     1     1
# E_F                 =    -4.2751 eV --> (shifted to ZERO)
# Broadening          =     0.0500 eV
#
#        E            N(up)  (=)   N(down)         Ntot
     -5.000000     36.689603     36.689603     73.379205
     -4.989990     39.257608     39.257608     78.515217
     -4.979980     41.612281     41.612281     83.224563
     -4.969970     43.247702     43.247702     86.495404
     -4.959960     43.751831     43.751831     87.503661
     -4.949950     42.935107     42.935107     85.870214
     -4.939940     40.889537     40.889537     81.779074
     -4.929930     37.976618     37.976618     75.953236
     -4.919920     34.768526     34.768526     69.537052
     -4.909910     31.968771     31.968771     63.937541
     -4.899900     30.318148     30.318148     60.636297
     -4.889890     30.469510     30.469510     60.939020
     -4.879880     32.817929     32.817929     65.635859
     -4.869870     37.312879     37.312879     74.625759
     -4.859860     43.333553     43.333553     86.667105
     -4.849850     49.729320     49.729320     99.458640
     -4.839840     55.076986     55.076986    110.153972
     -4.829830     58.096695     58.096695    116.193389
     -4.819820     58.063811     58.063811    116.127621
     -4.809810     55.030759     55.030759    110.061519
     -4.799800     49.758176     49.758176     99.516351
     -4.789790     43.400805     43.400805     86.801610
     -4.779780     37.108314     37.108314     74.216628
     -4.769770     31.716519     31.716519     63.433038
     -4.759760     27.624701     27.624701     55.249403
     -4.749750     24.845203     24.845203     49.690406
     -4.739740     23.142453     23.142453     46.284906
     -4.729730     22.175222     22.175222     44.350445
     -4.719720     21.594646     21.594646     43.189292
     -4.709710     21.093029     21.093029     42.186059
     -4.699700     20.422915     20.422915     40.845830
     -4.689690     19.411353     19.411353     38.822706
     -4.679680     17.986752     17.986752     35.973505
     -4.669670     16.219709     16.219709     32.439418
     -4.659660     14.360854     14.360854     28.721709
     -4.649650     12.847824     12.847824     25.695648
     -4.639640     12.256955     12.256955     24.513909
     -4.629630     13.191304     13.191304     26.382608
     -4.619620     16.117535     16.117535     32.235070
     -4.609610     21.185546     21.185546     42.371091
     -4.599600     28.085226     28.085226     56.170453
     -4.589590     36.007476     36.007476     72.014951
     -4.579580     43.764659     43.764659     87.529318
     -4.569570     50.075565     50.075565    100.151129
     -4.559560     53.942283     53.942283    107.884565
     -4.549550     54.981564     54.981564    109.963128
     -4.539540     53.567245     53.567245    107.134490
     -4.529530     50.709551     50.709551    101.419103
     -4.519520     47.710621     47.710621     95.421241
     -4.509510     45.732880     45.732880     91.465760
     -4.499499     45.446768     45.446768     90.893536
     -4.489489     46.876044     46.876044     93.752087
     -4.479479     49.465267     49.465267     98.930534
     -4.469469     52.307169     52.307169    104.614338
     -4.459459     54.426800     54.426800    108.853599
     -4.449449     55.030906     55.030906    110.061812
     -4.439439     53.672188     53.672188    107.344377
     -4.429429     50.318206     50.318206    100.636412
     -4.419419     45.336225     45.336225     90.672449
     -4.409409     39.409705     39.409705     78.819411
     -4.399399     33.401123     33.401123     66.802247
     -4.389389     28.179258     28.179258     56.358515
     -4.379379     24.439167     24.439167     48.878334
     -4.369369     22.554606     22.554606     45.109212
     -4.359359     22.506096     22.506096     45.012191
     -4.349349     23.914359     23.914359     47.828718
     -4.339339     26.176814     26.176814     52.353629
     -4.329329     28.665250     28.665250     57.330500
     -4.319319     30.915755     30.915755     61.831510
     -4.309309     32.744034     32.744034     65.488068
     -4.299299     34.250510     34.250510     68.501020
     -4.289289     35.722521     35.722521     71.445043
     -4.279279     37.473726     37.473726     74.947451
     -4.269269     39.674148     39.674148     79.348296
     -4.259259     42.224026     42.224026     84.448051
     -4.249249     44.718499     44.718499     89.436998
     -4.239239     46.534149     46.534149     93.068297
     -4.229229     47.030832     47.030832     94.061665
     -4.219219     45.805488     45.805488     91.610975
     -4.209209     42.888284     42.888284     85.776568
     -4.199199     38.776804     38.776804     77.553608
     -4.189189     34.275297     34.275297     68.550593
     -4.179179     30.208398     30.208398     60.416796
     -4.169169     27.147099     27.147099     54.294198
     -4.159159     25.273778     25.273778     50.547556
     -4.149149     24.432270     24.432270     48.864540
     -4.139139     24.311977     24.311977     48.623955
     -4.129129     24.656962     24.656962     49.313925
     -4.119119     25.393212     25.393212     50.786423
     -4.109109     26.616453     26.616453     53.232906
     -4.099099     28.452037     28.452037     56.904073
     -4.089089     30.862201     30.862201     61.724403
     -4.079079     33.511047     33.511047     67.022094
     -4.069069     35.781771     35.781771     71.563543
     -4.059059     36.968730     36.968730     73.937460
     -4.049049     36.567675     36.567675     73.135350
     -4.039039     34.519544     34.519544     69.039088
     -4.029029     31.276535     31.276535     62.553070
     -4.019019     27.653426     27.653426     55.306852
     -4.009009     24.544294     24.544294     49.088589
     -3.998999     22.649384     22.649384     45.298768
     -3.988989     22.331181     22.331181     44.662362
     -3.978979     23.628295     23.628295     47.256591
     -3.968969     26.366662     26.366662     52.733323
     -3.958959     30.276189     30.276189     60.552378
     -3.948949     35.055818     35.055818     70.111637
     -3.938939     40.391683     40.391683     80.783366
     -3.928929     45.969610     45.969610     91.939220
     -3.918919     51.510385     51.510385    103.020770
     -3.908909     56.813203     56.813203    113.626406
     -3.898899     61.762508     61.762508    123.525017
     -3.888889     66.265921     66.265921    132.531842
     -3.878879     70.140088     70.140088    140.280177
     -3.868869     73.011655     73.011655    146.023309
     -3.858859     74.313770     74.313770    148.627539
     -3.848849     73.419628     73.419628    146.839255
     -3.838839     69.881020     69.881020    139.762040
     -3.828829     63.672609     63.672609    127.345217
     -3.818819     55.322670     55.322670    110.645339
     -3.808809     45.854359     45.854359     91.708718
     -3.798799     36.546734     36.546734     73.093469
     -3.788789     28.604846     28.604846     57.209692
     -3.778779     22.860993     22.860993     45.721985
     -3.768769     19.604085     19.604085     39.208169
     -3.758759     18.574116     18.574116     37.148232
     -3.748749     19.099876     19.099876     38.199753
     -3.738739     20.323504     20.323504     40.647009
     -3.728729     21.447180     21.447180     42.894360
     -3.718719     21.944244     21.944244     43.888487
     -3.708709     21.689240     21.689240     43.378480
     -3.698699     20.976301     20.976301     41.952602
     -3.688689     20.415738     20.415738     40.831476
     -3.678679     20.727256     20.727256     41.454512
     -3.668669     22.481873     22.481873     44.963746
     -3.658659     25.872488     25.872488     51.744977
     -3.648649     30.598364     30.598364     61.196728
     -3.638639     35.917895     35.917895     71.835790
     -3.628629     40.859929     40.859929     81.719857
     -3.618619     44.513704     44.513704     89.027409
     -3.608609     46.281271     46.281271     92.562542
     -3.598599     45.999429     45.999429     91.998858
     -3.588589     43.907773     43.907773     87.815546
     -3.578579     40.509954     40.509954     81.019908
     -3.568569     36.404096     36.404096     72.808193
     -3.558559     32.139372     32.139372     64.278744
     -3.548549     28.119256     28.119256     56.238512
     -3.538539     24.551777     24.551777     49.103555
     -3.528529     21.448851     21.448851     42.897701
     -3.518519     18.679785     18.679785     37.359569
     -3.508509     16.069740     16.069740     32.139481
     -3.498498     13.508498     13.508498     27.016996
     -3.488488     11.022512     11.022512     22.045025
     -3.478478      8.779112      8.779112     17.558223
     -3.468468      7.026083      7.026083     14.052165
     -3.458458      5.998192      5.998192     11.996384
     -3.448448      5.828492      5.828492     11.656983
     -3.438438      6.491152      6.491152     12.982304
     -3.428428      7.789265      7.789265     15.578531
     -3.418418      9.393494      9.393494     18.786988
     -3.408408     10.929888     10.929888     21.859776
     -3.398398     12.099247     12.099247     24.198495
     -3.388388     12.789376     12.789376     25.578752
     -3.378378     13.131993     13.131993     26.263987
     -3.368368     13.472576     13.472576     26.945152
     -3.358358     14.259892     14.259892     28.519785
     -3.348348     15.898879     15.898879     31.797757
     -3.338338     18.620794     18.620794     37.241587
     -3.328328     22.404106     22.404106     44.808212
     -3.318318     26.949322     26.949322     53.898643
     -3.308308     31.698373     31.698373     63.396745
     -3.298298     35.900911     35.900911     71.801822
     -3.288288     38.743156     38.743156     77.486313
     -3.278278     39.539938     39.539938     79.079877
     -3.268268     37.944300     37.944300     75.888599
     -3.258258     34.087085     34.087085     68.174170
     -3.248248     28.566363     28.566363     57.132725
     -3.238238     22.273182     22.273182     44.546363
     -3.228228     16.125404     16.125404     32.250808
     -3.218218     10.826103     10.826103     21.652206
     -3.208208      6.739112      6.739112     13.478224
     -3.198198      3.904624      3.904624      7.809248
     -3.188188      2.152091      2.152091      4.304182
     -3.178178      1.241744      1.241744      2.483487
     -3.168168      0.980636      0.980636      1.961272
     -3.158158      1.290276      1.290276      2.580552
     -3.148148      2.226264      2.226264      4.452527
     -3.138138      3.957053      3.957053      7.914105
     -3.128128      6.705786      6.705786     13.411571
     -3.118118     10.658623     10.658623     21.317247
     -3.108108     15.852785     15.852785     31.705571
     -3.098098     22.075092     22.075092     44.150183
     -3.088088     28.815144     28.815144     57.630288
     -3.078078     35.312189     35.312189     70.624378
     -3.068068     40.704635     40.704635     81.409269
     -3.058058     44.245138     44.245138     88.490277
     -3.048048     45.505675     45.505675     91.011350
     -3.038038     44.491514     44.491514     88.983029
     -3.028028     41.619766     41.619766     83.239532
     -3.018018     37.579302     37.579302     75.158604
     -3.008008     33.138628     33.138628     66.277256
     -2.997998     28.978180     28.978180     57.956359
     -2.987988     25.594013     25.594013     51.188027
     -2.977978     23.277529     23.277529     46.555058
     -2.967968     22.148255     22.148255     44.296510
     -2.957958     22.210360     22.210360     44.420720
     -2.947948     23.406224     23.406224     46.812448
     -2.937938     25.642838     25.642838     51.285675
     -2.927928     28.774944     28.774944     57.549889
     -2.917918     32.552509     32.552509     65.105018
     -2.907908     36.572380     36.572380     73.144761
     -2.897898     40.289134     40.289134     80.578269
     -2.887888     43.116260     43.116260     86.232520
     -2.877878     44.593192     44.593192     89.186385
     -2.867868     44.542153     44.542153     89.084305
     -2.857858     43.129614     43.129614     86.259227
     -2.847848     40.791126     40.791126     81.582253
     -2.837838     38.050111     38.050111     76.100222
     -2.827828     35.318011     35.318011     70.636022
     -2.817818     32.771908     32.771908     65.543815
     -2.807808     30.362374     30.362374     60.724748
     -2.797798     27.934212     27.934212     55.868424
     -2.787788     25.384649     25.384649     50.769298
     -2.777778     22.768643     22.768643     45.537287
     -2.767768     20.296099     20.296099     40.592197
     -2.757758     18.230590     18.230590     36.461179
     -2.747748     16.756603     16.756603     33.513206
     -2.737738     15.899001     15.899001     31.798002
     -2.727728     15.543972     15.543972     31.087943
     -2.717718     15.545066     15.545066     31.090131
     -2.707708     15.841503     15.841503     31.683007
     -2.697698     16.505742     16.505742     33.011484
     -2.687688     17.682454     17.682454     35.364908
     -2.677678     19.454561     19.454561     38.909123
     -2.667668     21.725631     21.725631     43.451262
     -2.657658     24.203732     24.203732     48.407464
     -2.647648     26.508809     26.508809     53.017618
     -2.637638     28.343765     28.343765     56.687529
     -2.627628     29.624735     29.624735     59.249471
     -2.617618     30.491433     30.491433     60.982867
     -2.607608     31.197241     31.197241     62.394482
     -2.597598     31.954547     31.954547     63.909095
     -2.587588     32.829179     32.829179     65.658358
     -2.577578     33.729782     33.729782     67.459564
     -2.567568     34.467088     34.467088     68.934176
     -2.557558     34.822499     34.822499     69.644998
     -2.547548     34.588039     34.588039     69.176078
     -2.537538     33.589764     33.589764     67.179528
     -2.527528     31.731503     31.731503     63.463005
     -2.517518     29.070690     29.070690     58.141379
     -2.507508     25.888289     25.888289     51.776578
     -2.497497     22.689584     22.689584     45.379168
     -2.487487     20.099282     20.099282     40.198565
     -2.477477     18.676056     18.676056     37.352113
     -2.467467     18.724683     18.724683     37.449366
     -2.457457     20.193853     20.193853     40.387705
     -2.447447     22.710078     22.710078     45.420155
     -2.437437     25.734924     25.734924     51.469849
     -2.427427     28.775293     28.775293     57.550587
     -2.417417     31.550887     31.550887     63.101774
     -2.407407     34.041606     34.041606     68.083212
     -2.397397     36.393815     36.393815     72.787630
     -2.387387     38.733450     38.733450     77.466901
     -2.377377     40.982716     40.982716     81.965432
     -2.367367     42.780470     42.780470     85.560941
     -2.357357     43.560177     43.560177     87.120353
     -2.347347     42.763264     42.763264     85.526529
     -2.337337     40.096067     40.096067     80.192134
     -2.327327     35.711528     35.711528     71.423056
     -2.317317     30.229466     30.229466     60.458932
     -2.307307     24.585439     24.585439     49.170878
     -2.297297     19.775817     19.775817     39.551635
     -2.287287     16.603260     16.603260     33.206519
     -2.277277     15.508807     15.508807     31.017614
     -2.267267     16.525135     16.525135     33.050270
     -2.257257     19.335089     19.335089     38.670179
     -2.247247     23.392651     23.392651     46.785302
     -2.237237     28.059919     28.059919     56.119838
     -2.227227     32.722547     32.722547     65.445094
     -2.217217     36.860171     36.860171     73.720342
     -2.207207     40.067507     40.067507     80.135015
     -2.197197     42.044195     42.044195     84.088390
     -2.187187     42.586847     42.586847     85.173693
     -2.177177     41.611398     41.611398     83.222797
     -2.167167     39.204310     39.204310     78.408621
     -2.157157     35.664277     35.664277     71.328555
     -2.147147     31.481401     31.481401     62.962802
     -2.137137     27.227519     27.227519     54.455038
     -2.127127     23.388215     23.388215     46.776430
     -2.117117     20.214785     20.214785     40.429569
     -2.107107     17.674895     17.674895     35.349790
     -2.097097     15.528377     15.528377     31.056754
     -2.087087     13.483665     13.483665     26.967331
     -2.077077     11.348775     11.348775     22.697550
     -2.067067      9.103820      9.103820     18.207640
     -2.057057      6.875653      6.875653     13.751305
     -2.047047      4.850043      4.850043      9.700087
     -2.037037      3.179766      3.179766      6.359531
     -2.027027      1.932313      1.932313      3.864626
     -2.017017      1.087832      1.087832      2.175663
     -2.007007      0.570741      0.570741      1.141483
     -1.996997      0.290193      0.290193      0.580386
     -1.986987      0.171938      0.171938      0.343875
     -1.976977      0.176590      0.176590      0.353180
     -1.966967      0.307455      0.307455      0.614910
     -1.956957      0.612104      0.612104      1.224207
     -1.946947      1.177928      1.177928      2.355856
     -1.936937      2.117502      2.117502      4.235003
     -1.926927      3.539174      3.539174      7.078347
     -1.916917      5.504103      5.504103     11.008206
     -1.906907      7.980952      7.980952     15.961903
     -1.896897     10.817450     10.817450     21.634899
     -1.886887     13.746919     13.746919     27.493839
     -1.876877     16.435559     16.435559     32.871118
     -1.866867     18.558912     18.558912     37.117824
     -1.856857     19.883590     19.883590     39.767180
     -1.846847     20.328624     20.328624     40.657248
     -1.836837     19.987311     19.987311     39.974621
     -1.826827     19.099740     19.099740     38.199481
     -1.816817     17.977631     17.977631     35.955261
     -1.806807     16.899813     16.899813     33.799626
     -1.796797     16.015950     16.015950     32.031901
     -1.786787     15.304289     15.304289     30.608577
     -1.776777     14.611848     14.611848     29.223695
     -1.766767     13.764152     13.764152     27.528304
     -1.756757     12.689631     12.689631     25.379261
     -1.746747     11.490542     11.490542     22.981084
     -1.736737     10.419358     10.419358     20.838716
     -1.726727      9.771126      9.771126     19.542252
     -1.716717      9.747341      9.747341     19.494683
     -1.706707     10.360646     10.360646     20.721292
     -1.696697     11.427235     11.427235     22.854470
     -1.686687     12.648395     12.648395     25.296791
     -1.676677     13.736863     13.736863     27.473726
     -1.666667     14.520703     14.520703     29.041406
     -1.656657     14.971203     14.971203     29.942407
     -1.646647     15.147177     15.147177     30.294353
     -1.636637     15.100154     15.100154     30.200308
     -1.626627     14.809268     14.809268     29.618536
