# EIG2DOS: Utility for SIESTA to obtain the electronic density of states
#  E. Artacho, Apr 1999, A. Garcia, Apr 2012
#  Nick R. Papior, Feb 2017
# ------------------------------------------
# Eigenvalues calculated from a non-polarized calculation
# Eigenvalues read from siesta.EIG
# Kpoint weights read from siesta.KP
# Using smearing parameter:   0.0500
# Using 1000 points in the energy range
# Selected bands: 1 to: 2981
# Emin, Emax in file for selected band(s):    -27.0297141    218.3071500
# Nbands, Nspin, Nk   =   2981     1     1
# E_F                 =    -4.3073 eV --> (shifted to ZERO)
# Broadening          =     0.0500 eV
#
#        E            N(up)  (=)   N(down)         Ntot
     -5.000000     43.282221     43.282221     86.564441
     -4.989990     47.891355     47.891355     95.782710
     -4.979980     51.211967     51.211967    102.423935
     -4.969970     52.777919     52.777919    105.555838
     -4.959960     52.380353     52.380353    104.760707
     -4.949950     50.135803     50.135803    100.271607
     -4.939940     46.469699     46.469699     92.939399
     -4.929930     42.033096     42.033096     84.066192
     -4.919920     37.595830     37.595830     75.191660
     -4.909910     33.952001     33.952001     67.904002
     -4.899900     31.839636     31.839636     63.679272
     -4.889890     31.843685     31.843685     63.687370
     -4.879880     34.253633     34.253633     68.507266
     -4.869870     38.895343     38.895343     77.790685
     -4.859860     45.022189     45.022189     90.044378
     -4.849850     51.375790     51.375790    102.751580
     -4.839840     56.469969     56.469969    112.939939
     -4.829830     59.029666     59.029666    118.059332
     -4.819820     58.405591     58.405591    116.811183
     -4.809810     54.769706     54.769706    109.539411
     -4.799800     48.999967     48.999967     97.999934
     -4.789790     42.323233     42.323233     84.646466
     -4.779780     35.898343     35.898343     71.796685
     -4.769770     30.520120     30.520120     61.040239
     -4.759760     26.526884     26.526884     53.053768
     -4.749750     23.877993     23.877993     47.755985
     -4.739740     22.306339     22.306339     44.612678
     -4.729730     21.459862     21.459862     42.919723
     -4.719720     20.992094     20.992094     41.984187
     -4.709710     20.603315     20.603315     41.206630
     -4.699700     20.053732     20.053732     40.107463
     -4.689690     19.172971     19.172971     38.345943
     -4.679680     17.883530     17.883530     35.767060
     -4.669670     16.241474     16.241474     32.482947
     -4.659660     14.478889     14.478889     28.957779
     -4.649650     13.018929     13.018929     26.037859
     -4.639640     12.435225     12.435225     24.870451
     -4.629630     13.343179     13.343179     26.686357
     -4.619620     16.233611     16.233611     32.467222
     -4.609610     21.283426     21.283426     42.566852
     -4.599600     28.200678     28.200678     56.401356
     -4.589590     36.175474     36.175474     72.350949
     -4.579580     43.996318     43.996318     87.992636
     -4.569570     50.339670     50.339670    100.679340
     -4.559560     54.159186     54.159186    108.318372
     -4.549550     55.031889     55.031889    110.063777
     -4.539540     53.310595     53.310595    106.621190
     -4.529530     50.003398     50.003398    100.006796
     -4.519520     46.420045     46.420045     92.840090
     -4.509510     43.727839     43.727839     87.455678
     -4.499499     42.592063     42.592063     85.184125
     -4.489489     43.026390     43.026390     86.052779
     -4.479479     44.480447     44.480447     88.960893
     -4.469469     46.097571     46.097571     92.195142
     -4.459459     47.026876     47.026876     94.053752
     -4.449449     46.680560     46.680560     93.361121
     -4.439439     44.872238     44.872238     89.744476
     -4.429429     41.825338     41.825338     83.650676
     -4.419419     38.078733     38.078733     76.157466
     -4.409409     34.331777     34.331777     68.663555
     -4.399399     31.269203     31.269203     62.538405
     -4.389389     29.400036     29.400036     58.800073
     -4.379379     28.941599     28.941599     57.883199
     -4.369369     29.777062     29.777062     59.554124
     -4.359359     31.503693     31.503693     63.007386
     -4.349349     33.563703     33.563703     67.127407
     -4.339339     35.418242     35.418242     70.836484
     -4.329329     36.705155     36.705155     73.410309
     -4.319319     37.326873     37.326873     74.653747
     -4.309309     37.445053     37.445053     74.890106
     -4.299299     37.396478     37.396478     74.792957
     -4.289289     37.569049     37.569049     75.138098
     -4.279279     38.277013     38.277013     76.554026
     -4.269269     39.659083     39.659083     79.318165
     -4.259259     41.610988     41.610988     83.221977
     -4.249249     43.767732     43.767732     87.535464
     -4.239239     45.560728     45.560728     91.121456
     -4.229229     46.366015     46.366015     92.732030
     -4.219219     45.717426     45.717426     91.434851
     -4.209209     43.503340     43.503340     87.006681
     -4.199199     40.044110     40.044110     80.088220
     -4.189189     35.992316     35.992316     71.984632
     -4.179179     32.092183     32.092183     64.184367
     -4.169169     28.916128     28.916128     57.832256
     -4.159159     26.708159     26.708159     53.416318
     -4.149149     25.398924     25.398924     50.797849
     -4.139139     24.761233     24.761233     49.522466
     -4.129129     24.606620     24.606620     49.213241
     -4.119119     24.913569     24.913569     49.827138
     -4.109109     25.820493     25.820493     51.640986
     -4.099099     27.486586     27.486586     54.973172
     -4.089089     29.893398     29.893398     59.786796
     -4.079079     32.701477     32.701477     65.402954
     -4.069069     35.263567     35.263567     70.527134
     -4.059059     36.821451     36.821451     73.642901
     -4.049049     36.808416     36.808416     73.616833
     -4.039039     35.106313     35.106313     70.212627
     -4.029029     32.119467     32.119467     64.238934
     -4.019019     28.627147     28.627147     57.254293
     -4.009009     25.499542     25.499542     50.999083
     -3.998999     23.428059     23.428059     46.856117
     -3.988989     22.789756     22.789756     45.579512
     -3.978979     23.667927     23.667927     47.335854
     -3.968969     25.959436     25.959436     51.918872
     -3.958959     29.473804     29.473804     58.947607
     -3.948949     33.973439     33.973439     67.946878
     -3.938939     39.171997     39.171997     78.343994
     -3.928929     44.742111     44.742111     89.484221
     -3.918919     50.362752     50.362752    100.725503
     -3.908909     55.785229     55.785229    111.570459
     -3.898899     60.862405     60.862405    121.724811
     -3.888889     65.498811     65.498811    130.997621
     -3.878879     69.532887     69.532887    139.065773
     -3.868869     72.619871     72.619871    145.239741
     -3.858859     74.204621     74.204621    148.409242
     -3.848849     73.638965     73.638965    147.277929
     -3.838839     70.421699     70.421699    140.843398
     -3.828829     64.462297     64.462297    128.924595
     -3.818819     56.238579     56.238579    112.477158
     -3.808809     46.757712     46.757712     93.515424
     -3.798799     37.320345     37.320345     74.640690
     -3.788789     29.178210     29.178210     58.356420
     -3.778779     23.216353     23.216353     46.432705
     -3.768769     19.766836     19.766836     39.533672
     -3.758759     18.595926     18.595926     37.191853
     -3.748749     19.041943     19.041943     38.083886
     -3.738739     20.243491     20.243491     40.486983
     -3.728729     21.390105     21.390105     42.780210
     -3.718719     21.936501     21.936501     43.873002
     -3.708709     21.735547     21.735547     43.471093
     -3.698699     21.060150     21.060150     42.120299
     -3.688689     20.504015     20.504015     41.008030
     -3.678679     20.778882     20.778882     41.557764
     -3.668669     22.459096     22.459096     44.918192
     -3.658659     25.752377     25.752377     51.504755
     -3.648649     30.381451     30.381451     60.762903
     -3.638639     35.631128     35.631128     71.262256
     -3.628629     40.552351     40.552351     81.104701
     -3.618619     44.245433     44.245433     88.490867
     -3.608609     46.108725     46.108725     92.217449
     -3.598599     45.961246     45.961246     91.922491
     -3.588589     44.015755     44.015755     88.031509
     -3.578579     40.747586     40.747586     81.495172
     -3.568569     36.732583     36.732583     73.465166
     -3.558559     32.508698     32.508698     65.017396
     -3.548549     28.480462     28.480462     56.960925
     -3.538539     24.866808     24.866808     49.733615
     -3.528529     21.695794     21.695794     43.391588
     -3.518519     18.853320     18.853320     37.706641
     -3.508509     16.178146     16.178146     32.356292
     -3.498498     13.569154     13.569154     27.138307
     -3.488488     11.057447     11.057447     22.114894
     -3.478478      8.811259      8.811259     17.622517
     -3.468468      7.076054      7.076054     14.152108
     -3.458458      6.080980      6.080980     12.161960
     -3.448448      5.949800      5.949800     11.899600
     -3.438438      6.644002      6.644002     13.288004
     -3.428428      7.952583      7.952583     15.905166
     -3.418418      9.534614      9.534614     19.069227
     -3.408408     11.011724     11.011724     22.023448
     -3.398398     12.090580     12.090580     24.181159
     -3.388388     12.674753     12.674753     25.349505
     -3.378378     12.917539     12.917539     25.835078
     -3.368368     13.185675     13.185675     26.371351
     -3.358358     13.943077     13.943077     27.886155
     -3.348348     15.599813     15.599813     31.199626
     -3.338338     18.380814     18.380814     36.761629
     -3.328328     22.248061     22.248061     44.496122
     -3.318318     26.879877     26.879877     53.759754
     -3.308308     31.697565     31.697565     63.395130
     -3.298298     35.939291     35.939291     71.878582
     -3.288288     38.792921     38.792921     77.585841
     -3.278278     39.585628     39.585628     79.171257
     -3.268268     37.985686     37.985686     75.971371
     -3.258258     34.133581     34.133581     68.267162
     -3.248248     28.627438     28.627438     57.254876
     -3.238238     22.350985     22.350985     44.701970
     -3.228228     16.213284     16.213284     32.426568
     -3.218218     10.912277     10.912277     21.824554
     -3.208208      6.811759      6.811759     13.623518
     -3.198198      3.954660      3.954660      7.909319
     -3.188188      2.171860      2.171860      4.343720
     -3.178178      1.219907      1.219907      2.439814
     -3.168168      0.894508      0.894508      1.789016
     -3.158158      1.097003      1.097003      2.194005
     -3.148148      1.854345      1.854345      3.708691
     -3.138138      3.300328      3.300328      6.600656
     -3.128128      5.623020      5.623020     11.246040
     -3.118118      8.982920      8.982920     17.965839
     -3.108108     13.415694     13.415694     26.831388
     -3.098098     18.749494     18.749494     37.498987
     -3.088088     24.576597     24.576597     49.153193
     -3.078078     30.308180     30.308180     60.616360
     -3.068068     35.306028     35.306028     70.612056
     -3.058058     39.041987     39.041987     78.083974
     -3.048048     41.214014     41.214014     82.428027
     -3.038038     41.768380     41.768380     83.536761
     -3.028028     40.833836     40.833836     81.667672
     -3.018018     38.627987     38.627987     77.255974
     -3.008008     35.407623     35.407623     70.815247
     -2.997998     31.492451     31.492451     62.984902
     -2.987988     27.327504     27.327504     54.655009
     -2.977978     23.512603     23.512603     47.025206
     -2.967968     20.743858     20.743858     41.487716
     -2.957958     19.666919     19.666919     39.333838
     -2.947948     20.694384     20.694384     41.388768
     -2.937938     23.859821     23.859821     47.719641
     -2.927928     28.764810     28.764810     57.529621
     -2.917918     34.640102     34.640102     69.280204
     -2.907908     40.505851     40.505851     81.011702
     -2.897898     45.389093     45.389093     90.778186
     -2.887888     48.541934     48.541934     97.083869
     -2.877878     49.602439     49.602439     99.204878
     -2.867868     48.652813     48.652813     97.305626
     -2.857858     46.156014     46.156014     92.312028
     -2.847848     42.788125     42.788125     85.576250
     -2.837838     39.220075     39.220075     78.440150
     -2.827828     35.924337     35.924337     71.848675
     -2.817818     33.076635     33.076635     66.153270
     -2.807808     30.585886     30.585886     61.171772
     -2.797798     28.230057     28.230057     56.460114
     -2.787788     25.827167     25.827167     51.654334
     -2.777778     23.355671     23.355671     46.711343
     -2.767768     20.967687     20.967687     41.935375
     -2.757758     18.898420     18.898420     37.796840
     -2.747748     17.333276     17.333276     34.666551
     -2.737738     16.316546     16.316546     32.633091
     -2.727728     15.757461     15.757461     31.514922
     -2.717718     15.526179     15.526179     31.052358
     -2.707708     15.572597     15.572597     31.145194
     -2.697698     15.983598     15.983598     31.967195
     -2.687688     16.932843     16.932843     33.865687
     -2.677678     18.548726     18.548726     37.097452
     -2.667668     20.784359     20.784359     41.568719
     -2.657658     23.378664     23.378664     46.757327
     -2.647648     25.943035     25.943035     51.886069
     -2.637638     28.127423     28.127423     56.254847
     -2.627628     29.766682     29.766682     59.533363
     -2.617618     30.920459     30.920459     61.840919
     -2.607608     31.790535     31.790535     63.581071
     -2.597598     32.577984     32.577984     65.155969
     -2.587588     33.372081     33.372081     66.744161
     -2.577578     34.125039     34.125039     68.250078
     -2.567568     34.697412     34.697412     69.394824
     -2.557558     34.917357     34.917357     69.834715
     -2.547548     34.613306     34.613306     69.226612
     -2.537538     33.629374     33.629374     67.258747
     -2.527528     31.862389     31.862389     63.724779
     -2.517518     29.337770     29.337770     58.675540
     -2.507508     26.289288     26.289288     52.578575
     -2.497497     23.176077     23.176077     46.352155
     -2.487487     20.592325     20.592325     41.184649
     -2.477477     19.088012     19.088012     38.176025
     -2.467467     18.977925     18.977925     37.955851
     -2.457457     20.231301     20.231301     40.462601
     -2.447447     22.498155     22.498155     44.996311
     -2.437437     25.262733     25.262733     50.525466
     -2.427427     28.053853     28.053853     56.107706
     -2.417417     30.614567     30.614567     61.229133
     -2.407407     32.951720     32.951720     65.903441
     -2.397397     35.242169     35.242169     70.484339
     -2.387387     37.641515     37.641515     75.283030
     -2.377377     40.091265     40.091265     80.182529
     -2.367367     42.226683     42.226683     84.453366
     -2.357357     43.444979     43.444979     86.889957
     -2.347347     43.118806     43.118806     86.237612
     -2.337337     40.867170     40.867170     81.734340
     -2.327327     36.761750     36.761750     73.523500
     -2.317317     31.372513     31.372513     62.745027
     -2.307307     25.631239     25.631239     51.262478
     -2.297297     20.574350     20.574350     41.148701
     -2.287287     17.071526     17.071526     34.143051
     -2.277277     15.634774     15.634774     31.269548
     -2.267267     16.351976     16.351976     32.703951
     -2.257257     18.935297     18.935297     37.870593
     -2.247247     22.843481     22.843481     45.686962
     -2.237237     27.429369     27.429369     54.858739
     -2.227227     32.069365     32.069365     64.138730
     -2.217217     36.243681     36.243681     72.487361
     -2.207207     39.556888     39.556888     79.113775
     -2.197197     41.716534     41.716534     83.433069
     -2.187187     42.510256     42.510256     85.020512
     -2.177177     41.819938     41.819938     83.639875
     -2.167167     39.678558     39.678558     79.357116
     -2.157157     36.330060     36.330060     72.660120
     -2.147147     32.230062     32.230062     64.460125
     -2.137137     27.949724     27.949724     55.899448
     -2.127127     24.006322     24.006322     48.012644
     -2.117117     20.699978     20.699978     41.399957
     -2.107107     18.043437     18.043437     36.086873
     -2.097097     15.821688     15.821688     31.643375
     -2.087087     13.743778     13.743778     27.487556
     -2.077077     11.600777     11.600777     23.201553
     -2.067067      9.351130      9.351130     18.702260
     -2.057057      7.106481      7.106481     14.212962
     -2.047047      5.048548      5.048548     10.097096
     -2.037037      3.335239      3.335239      6.670477
     -2.027027      2.042967      2.042967      4.085933
     -2.017017      1.159583      1.159583      2.319166
     -2.007007      0.613585      0.613585      1.227171
     -1.996997      0.314787      0.314787      0.629573
     -1.986987      0.187819      0.187819      0.375637
     -1.976977      0.192107      0.192107      0.384215
     -1.966967      0.330662      0.330662      0.661324
     -1.956957      0.651520      0.651520      1.303040
     -1.946947      1.242079      1.242079      2.484158
     -1.936937      2.212481      2.212481      4.424962
     -1.926927      3.664358      3.664358      7.328717
     -1.916917      5.647584      5.647584     11.295168
     -1.906907      8.117605      8.117605     16.235209
     -1.896897     10.912730     10.912730     21.825459
     -1.886887     13.767440     13.767440     27.534881
     -1.876877     16.363708     16.363708     32.727417
     -1.866867     18.405205     18.405205     36.810409
     -1.856857     19.689813     19.689813     39.379626
     -1.846847     20.158223     20.158223     40.316447
     -1.836837     19.905387     19.905387     39.810773
     -1.826827     19.150045     19.150045     38.300090
     -1.816817     18.165248     18.165248     36.330497
     -1.806807     17.185253     17.185253     34.370505
     -1.796797     16.320904     16.320904     32.641807
     -1.786787     15.523765     15.523765     31.047530
     -1.776777     14.623843     14.623843     29.247686
     -1.766767     13.428295     13.428295     26.856591
     -1.756757     11.831967     11.831967     23.663935
     -1.746747      9.882646      9.882646     19.765291
     -1.736737      7.772299      7.772299     15.544599
     -1.726727      5.770330      5.770330     11.540659
     -1.716717      4.144579      4.144579      8.289158
     -1.706707      3.112484      3.112484      6.224969
     -1.696697      2.834898      2.834898      5.669795
     -1.686687      3.431607      3.431607      6.863214
     -1.676677      4.982151      4.982151      9.964302
     -1.666667      7.487001      7.487001     14.974003
     -1.656657     10.796278     10.796278     21.592556
     -1.646647     14.547967     14.547967     29.095934
     -1.636637     18.172556     18.172556     36.345111
     -1.626627     21.000105     21.000105     42.000210
