# EIG2DOS: Utility for SIESTA to obtain the electronic density of states
#  E. Artacho, Apr 1999, A. Garcia, Apr 2012
#  Nick R. Papior, Feb 2017
# ------------------------------------------
# Eigenvalues calculated from a non-polarized calculation
# Eigenvalues read from siesta.EIG
# Kpoint weights read from siesta.KP
# Using smearing parameter:   0.0500
# Using 1000 points in the energy range
# Selected bands: 1 to: 2981
# Emin, Emax in file for selected band(s):    -27.0599071    218.3263600
# Nbands, Nspin, Nk   =   2981     1     1
# E_F                 =    -4.2868 eV --> (shifted to ZERO)
# Broadening          =     0.0500 eV
#
#        E            N(up)  (=)   N(down)         Ntot
     -5.000000     44.281027     44.281027     88.562054
     -4.989990     46.312110     46.312110     92.624221
     -4.979980     47.341309     47.341309     94.682617
     -4.969970     47.356424     47.356424     94.712848
     -4.959960     46.369366     46.369366     92.738732
     -4.949950     44.438203     44.438203     88.876406
     -4.939940     41.710852     41.710852     83.421704
     -4.929930     38.465814     38.465814     76.931628
     -4.919920     35.131419     35.131419     70.262838
     -4.909910     32.273692     32.273692     64.547385
     -4.899900     30.542646     30.542646     61.085292
     -4.889890     30.561255     30.561255     61.122510
     -4.879880     32.750207     32.750207     65.500415
     -4.869870     37.119750     37.119750     74.239501
     -4.859860     43.113806     43.113806     86.227612
     -4.849850     49.616907     49.616907     99.233813
     -4.839840     55.189514     55.189514    110.379027
     -4.829830     58.485746     58.485746    116.971492
     -4.819820     58.691613     58.691613    117.383227
     -4.809810     55.784235     55.784235    111.568471
     -4.799800     50.491627     50.491627    100.983254
     -4.789790     43.985294     43.985294     87.970588
     -4.779780     37.466740     37.466740     74.933481
     -4.769770     31.835147     31.835147     63.670294
     -4.759760     27.544580     27.544580     55.089160
     -4.749750     24.642737     24.642737     49.285473
     -4.739740     22.907098     22.907098     45.814195
     -4.729730     21.988753     21.988753     43.977507
     -4.719720     21.514776     21.514776     43.029552
     -4.709710     21.144169     21.144169     42.288338
     -4.699700     20.595887     20.595887     41.191775
     -4.689690     19.670693     19.670693     39.341385
     -4.679680     18.280802     18.280802     36.561605
     -4.669670     16.488069     16.488069     32.976137
     -4.659660     14.536809     14.536809     29.073617
     -4.649650     12.858284     12.858284     25.716568
     -4.639640     12.026002     12.026002     24.052003
     -4.629630     12.653359     12.653359     25.306717
     -4.619620     15.241721     15.241721     30.483442
     -4.609610     20.004996     20.004996     40.009993
     -4.599600     26.717201     26.717201     53.434401
     -4.589590     34.647450     34.647450     69.294900
     -4.579580     42.644787     42.644787     85.289573
     -4.569570     49.394474     49.394474     98.788947
     -4.559560     53.791024     53.791024    107.582048
     -4.549550     55.297674     55.297674    110.595347
     -4.539540     54.138302     54.138302    108.276605
     -4.529530     51.223924     51.223924    102.447847
     -4.519520     47.830728     47.830728     95.661456
     -4.509510     45.159890     45.159890     90.319779
     -4.499499     43.959246     43.959246     87.918492
     -4.489489     44.348972     44.348972     88.697944
     -4.479479     45.892127     45.892127     91.784255
     -4.469469     47.842181     47.842181     95.684363
     -4.459459     49.436977     49.436977     98.873955
     -4.449449     50.116153     50.116153    100.232307
     -4.439439     49.602908     49.602908     99.205815
     -4.429429     47.870535     47.870535     95.741070
     -4.419419     45.064794     45.064794     90.129589
     -4.409409     41.450051     41.450051     82.900103
     -4.399399     37.398942     37.398942     74.797885
     -4.389389     33.390080     33.390080     66.780161
     -4.379379     29.958962     29.958962     59.917925
     -4.369369     27.580207     27.580207     55.160415
     -4.359359     26.519974     26.519974     53.039948
     -4.349349     26.737757     26.737757     53.475514
     -4.339339     27.902923     27.902923     55.805846
     -4.329329     29.530539     29.530539     59.061079
     -4.319319     31.174928     31.174928     62.349856
     -4.309309     32.590992     32.590992     65.181984
     -4.299299     33.795809     33.795809     67.591618
     -4.289289     35.014799     35.014799     70.029599
     -4.279279     36.543904     36.543904     73.087809
     -4.269269     38.582046     38.582046     77.164092
     -4.259259     41.090453     41.090453     82.180905
     -4.249249     43.729430     43.729430     87.458860
     -4.239239     45.910095     45.910095     91.820190
     -4.229229     46.967016     46.967016     93.934032
     -4.219219     46.403901     46.403901     92.807802
     -4.209209     44.111732     44.111732     88.223463
     -4.199199     40.448748     40.448748     80.897497
     -4.189189     36.128500     36.128500     72.257000
     -4.179179     31.961718     31.961718     63.923436
     -4.169169     28.577753     28.577753     57.155505
     -4.159159     26.258116     26.258116     52.516232
     -4.149149     24.945955     24.945955     49.891909
     -4.139139     24.399064     24.399064     48.798128
     -4.129129     24.388193     24.388193     48.776385
     -4.119119     24.834557     24.834557     49.669115
     -4.109109     25.821383     25.821383     51.642766
     -4.099099     27.478123     27.478123     54.956246
     -4.089089     29.798821     29.798821     59.597643
     -4.079079     32.496467     32.496467     64.992934
     -4.069069     34.991142     34.991142     69.982284
     -4.059059     36.570257     36.570257     73.140514
     -4.049049     36.664431     36.664431     73.328862
     -4.039039     35.105911     35.105911     70.211821
     -4.029029     32.232337     32.232337     64.464674
     -4.019019     28.778738     28.778738     57.557475
     -4.009009     25.617014     25.617014     51.234027
     -3.998999     23.479409     23.479409     46.958818
     -3.988989     22.792622     22.792622     45.585243
     -3.978979     23.666632     23.666632     47.333263
     -3.968969     25.989453     25.989453     51.978907
     -3.958959     29.537805     29.537805     59.075610
     -3.948949     34.041250     34.041250     68.082499
     -3.938939     39.199149     39.199149     78.398298
     -3.928929     44.691619     44.691619     89.383238
     -3.918919     50.217466     50.217466    100.434932
     -3.908909     55.548444     55.548444    111.096887
     -3.898899     60.552929     60.552929    121.105859
     -3.888889     65.147888     65.147888    130.295775
     -3.878879     69.185401     69.185401    138.370801
     -3.868869     72.336283     72.336283    144.672566
     -3.858859     74.057355     74.057355    148.114710
     -3.848849     73.698972     73.698972    147.397944
     -3.838839     70.736566     70.736566    141.473131
     -3.828829     65.033558     65.033558    130.067116
     -3.818819     57.009236     57.009236    114.018472
     -3.808809     47.618512     47.618512     95.237024
     -3.798799     38.135617     38.135617     76.271234
     -3.788789     29.822984     29.822984     59.645967
     -3.778779     23.611193     23.611193     47.222386
     -3.768769     19.897981     19.897981     39.795962
     -3.758759     18.514560     18.514560     37.029120
     -3.748749     18.844122     18.844122     37.688243
     -3.738739     20.038093     20.038093     40.076186
     -3.728729     21.264869     21.264869     42.529738
     -3.718719     21.931940     21.931940     43.863880
     -3.708709     21.834002     21.834002     43.668004
     -3.698699     21.193243     21.193243     42.386486
     -3.688689     20.576813     20.576813     41.153625
     -3.678679     20.703995     20.703995     41.407990
     -3.668669     22.189831     22.189831     44.379662
     -3.658659     25.302821     25.302821     50.605642
     -3.648649     29.824853     29.824853     59.649707
     -3.638639     35.076240     35.076240     70.152481
     -3.628629     40.107375     40.107375     80.214751
     -3.618619     43.985288     43.985288     87.970576
     -3.608609     46.059086     46.059086     92.118172
     -3.598599     46.103094     46.103094     92.206188
     -3.588589     44.303294     44.303294     88.606588
     -3.578579     41.127679     41.127679     82.255359
     -3.568569     37.157483     37.157483     74.314966
     -3.558559     32.941364     32.941364     65.882728
     -3.548549     28.896423     28.896423     57.792845
     -3.538539     25.255393     25.255393     50.510787
     -3.528529     22.059579     22.059579     44.119157
     -3.518519     19.202920     19.202920     38.405841
     -3.508509     16.522182     16.522182     33.044364
     -3.498498     13.903446     13.903446     27.806892
     -3.488488     11.359244     11.359244     22.718489
     -3.478478      9.041962      9.041962     18.083924
     -3.468468      7.191737      7.191737     14.383474
     -3.458458      6.047083      6.047083     12.094165
     -3.448448      5.755696      5.755696     11.511392
     -3.438438      6.313381      6.313381     12.626762
     -3.428428      7.545547      7.545547     15.091094
     -3.418418      9.137964      9.137964     18.275928
     -3.408408     10.716972     10.716972     21.433944
     -3.398398     11.964893     11.964893     23.929785
     -3.388388     12.735172     12.735172     25.470343
     -3.378378     13.119225     13.119225     26.238451
     -3.368368     13.429432     13.429432     26.858864
     -3.358358     14.099388     14.099388     28.198776
     -3.348348     15.541522     15.541522     31.083044
     -3.338338     18.016639     18.016639     36.033278
     -3.328328     21.551653     21.551653     43.103306
     -3.318318     25.909548     25.909548     51.819096
     -3.308308     30.599120     30.599120     61.198241
     -3.298298     34.923360     34.923360     69.846720
     -3.288288     38.084689     38.084689     76.169377
     -3.278278     39.358947     39.358947     78.717894
     -3.268268     38.306624     38.306624     76.613247
     -3.258258     34.939347     34.939347     69.878694
     -3.248248     29.751496     29.751496     59.502992
     -3.238238     23.582380     23.582380     47.164760
     -3.228228     17.362393     17.362393     34.724787
     -3.218218     11.855905     11.855905     23.711810
     -3.208208      7.505223      7.505223     15.010447
     -3.198198      4.416187      4.416187      8.832375
     -3.188188      2.454769      2.454769      4.909538
     -3.178178      1.387657      1.387657      2.775314
     -3.168168      1.006796      1.006796      2.013592
     -3.158158      1.207716      1.207716      2.415433
     -3.148148      2.018054      2.018054      4.036107
     -3.138138      3.583186      3.583186      7.166371
     -3.128128      6.114497      6.114497     12.228994
     -3.118118      9.804346      9.804346     19.608693
     -3.108108     14.719290     14.719290     29.438580
     -3.098098     20.698668     20.698668     41.397336
     -3.088088     27.299146     27.299146     54.598293
     -3.078078     33.823712     33.823712     67.647424
     -3.068068     39.448758     39.448758     78.897517
     -3.058058     43.421430     43.421430     86.842860
     -3.048048     45.261247     45.261247     90.522494
     -3.038038     44.888606     44.888606     89.777212
     -3.028028     42.629543     42.629543     85.259086
     -3.018018     39.099778     39.099778     78.199556
     -3.008008     35.021975     35.021975     70.043951
     -2.997998     31.050519     31.050519     62.101037
     -2.987988     27.661142     27.661142     55.322285
     -2.977978     25.125332     25.125332     50.250664
     -2.967968     23.554556     23.554556     47.109112
     -2.957958     22.978684     22.978684     45.957368
     -2.947948     23.415253     23.415253     46.830507
     -2.937938     24.890397     24.890397     49.780793
     -2.927928     27.393109     27.393109     54.786219
     -2.917918     30.782673     30.782673     61.565345
     -2.907908     34.707640     34.707640     69.415280
     -2.897898     38.604976     38.604976     77.209953
     -2.887888     41.812794     41.812794     83.625589
     -2.877878     43.764590     43.764590     87.529179
     -2.867868     44.177529     44.177529     88.355059
     -2.857858     43.139886     43.139886     86.279773
     -2.847848     41.050457     41.050457     82.100914
     -2.837838     38.438274     38.438274     76.876548
     -2.827828     35.750885     35.750885     71.501770
     -2.817818     33.211648     33.211648     66.423296
     -2.807808     30.806427     30.806427     61.612855
     -2.797798     28.391036     28.391036     56.782072
     -2.787788     25.849761     25.849761     51.699522
     -2.777778     23.213760     23.213760     46.427519
     -2.767768     20.676303     20.676303     41.352605
     -2.757758     18.503514     18.503514     37.007027
     -2.747748     16.900008     16.900008     33.800017
     -2.737738     15.913973     15.913973     31.827946
     -2.727728     15.440486     15.440486     30.880973
     -2.717718     15.319565     15.319565     30.639130
     -2.707708     15.463944     15.463944     30.927888
     -2.697698     15.930104     15.930104     31.860207
     -2.687688     16.880390     16.880390     33.760781
     -2.677678     18.454713     18.454713     36.909426
     -2.667668     20.632666     20.632666     41.265333
     -2.657658     23.178990     23.178990     46.357980
     -2.647648     25.715992     25.715992     51.431984
     -2.637638     27.885562     27.885562     55.771123
     -2.627628     29.504136     29.504136     59.008273
     -2.617618     30.618050     30.618050     61.236099
     -2.607608     31.432629     31.432629     62.865258
     -2.597598     32.169591     32.169591     64.339182
     -2.587588     32.945078     32.945078     65.890157
     -2.577578     33.730621     33.730621     67.461243
     -2.567568     34.391062     34.391062     68.782124
     -2.557558     34.745653     34.745653     69.491306
     -2.547548     34.606938     34.606938     69.213875
     -2.537538     33.799444     33.799444     67.598888
     -2.527528     32.194770     32.194770     64.389540
     -2.517518     29.785305     29.785305     59.570610
     -2.507508     26.768910     26.768910     53.537820
     -2.497497     23.579929     23.579929     47.159857
     -2.487487     20.815602     20.815602     41.631203
     -2.477477     19.065505     19.065505     38.131010
     -2.467467     18.713501     18.713501     37.427002
     -2.457457     19.805258     19.805258     39.610516
     -2.447447     22.046417     22.046417     44.092834
     -2.437437     24.934536     24.934536     49.869071
     -2.427427     27.964358     27.964358     55.928716
     -2.417417     30.810722     30.810722     61.621444
     -2.407407     33.403065     33.403065     66.806130
     -2.397397     35.857178     35.857178     71.714355
     -2.387387     38.300643     38.300643     76.601286
     -2.377377     40.684021     40.684021     81.368042
     -2.367367     42.681425     42.681425     85.362851
     -2.357357     43.743899     43.743899     87.487798
     -2.347347     43.294918     43.294918     86.589836
     -2.337337     40.985165     40.985165     81.970330
     -2.327327     36.890186     36.890186     73.780371
     -2.317317     31.558443     31.558443     63.116885
     -2.307307     25.886958     25.886958     51.773915
     -2.297297     20.879362     20.879362     41.758723
     -2.287287     17.385234     17.385234     34.770468
     -2.277277     15.911811     15.911811     31.823621
     -2.267267     16.553893     16.553893     33.107786
     -2.257257     19.036783     19.036783     38.073566
     -2.247247     22.834291     22.834291     45.668583
     -2.237237     27.313534     27.313534     54.627069
     -2.227227     31.862535     31.862535     63.725069
     -2.217217     35.969528     35.969528     71.939055
     -2.207207     39.244057     39.244057     78.488113
     -2.197197     41.397019     41.397019     82.794037
     -2.187187     42.218007     42.218007     84.436014
     -2.177177     41.587068     41.587068     83.174135
     -2.167167     39.528050     39.528050     79.056101
     -2.157157     36.267939     36.267939     72.535877
     -2.147147     32.242735     32.242735     64.485471
     -2.137137     28.010321     28.010321     56.020641
     -2.127127     24.087908     24.087908     48.175815
     -2.117117     20.788179     20.788179     41.576358
     -2.107107     18.140825     18.140825     36.281650
     -2.097097     15.941639     15.941639     31.883278
     -2.087087     13.898361     13.898361     27.796721
     -2.077077     11.790547     11.790547     23.581093
     -2.067067      9.562537      9.562537     19.125073
     -2.057057      7.317189      7.317189     14.634378
     -2.047047      5.236412      5.236412     10.472825
     -2.037037      3.485647      3.485647      6.971294
     -2.027027      2.151499      2.151499      4.302997
     -2.017017      1.230135      1.230135      2.460269
     -2.007007      0.654101      0.654101      1.308203
     -1.996997      0.332838      0.332838      0.665676
     -1.986987      0.187174      0.187174      0.374348
     -1.976977      0.170379      0.170379      0.340757
     -1.966967      0.277798      0.277798      0.555597
     -1.956957      0.549499      0.549499      1.098997
     -1.946947      1.067025      1.067025      2.134049
     -1.936937      1.940736      1.940736      3.881472
     -1.926927      3.282832      3.282832      6.565664
     -1.916917      5.165898      5.165898     10.331796
     -1.906907      7.576446      7.576446     15.152893
     -1.896897     10.381847     10.381847     20.763694
     -1.886887     13.329892     13.329892     26.659784
     -1.876877     16.089709     16.089709     32.179418
     -1.866867     18.325528     18.325528     36.651056
     -1.856857     19.780757     19.780757     39.561513
     -1.846847     20.345860     20.345860     40.691720
     -1.836837     20.088690     20.088690     40.177380
     -1.826827     19.235003     19.235003     38.470006
     -1.816817     18.098396     18.098396     36.196791
     -1.806807     16.975408     16.975408     33.950816
     -1.796797     16.041490     16.041490     32.082981
     -1.786787     15.294589     15.294589     30.589179
     -1.776777     14.580135     14.580135     29.160271
     -1.766767     13.692900     13.692900     27.385800
     -1.756757     12.508018     12.508018     25.016036
     -1.746747     11.074478     11.074478     22.148955
     -1.736737      9.623644      9.623644     19.247287
     -1.726727      8.490291      8.490291     16.980583
     -1.716717      7.985801      7.985801     15.971603
     -1.706707      8.280673      8.280673     16.561345
     -1.696697      9.343239      9.343239     18.686478
     -1.686687     10.954202     10.954202     21.908403
     -1.676677     12.785202     12.785202     25.570404
     -1.666667     14.504228     14.504228     29.008456
     -1.656657     15.860653     15.860653     31.721306
     -1.646647     16.715843     16.715843     33.431686
     -1.636637     17.018631     17.018631     34.037262
     -1.626627     16.759570     16.759570     33.519141
