# EIG2DOS: Utility for SIESTA to obtain the electronic density of states
#  E. Artacho, Apr 1999, A. Garcia, Apr 2012
#  Nick R. Papior, Feb 2017
# ------------------------------------------
# Eigenvalues calculated from a non-polarized calculation
# Eigenvalues read from siesta.EIG
# Kpoint weights read from siesta.KP
# Using smearing parameter:   0.0500
# Using 1000 points in the energy range
# Selected bands: 1 to: 2981
# Emin, Emax in file for selected band(s):    -27.0534056    218.3057240
# Nbands, Nspin, Nk   =   2981     1     1
# E_F                 =    -4.3108 eV --> (shifted to ZERO)
# Broadening          =     0.0500 eV
#
#        E            N(up)  (=)   N(down)         Ntot
     -5.000000     47.037293     47.037293     94.074586
     -4.989990     49.724944     49.724944     99.449888
     -4.979980     50.718438     50.718438    101.436875
     -4.969970     50.062063     50.062063    100.124127
     -4.959960     48.019814     48.019814     96.039628
     -4.949950     44.980467     44.980467     89.960934
     -4.939940     41.372977     41.372977     82.745953
     -4.929930     37.630176     37.630176     75.260352
     -4.919920     34.202766     34.202766     68.405532
     -4.909910     31.590651     31.590651     63.181303
     -4.899900     30.340441     30.340441     60.680881
     -4.889890     30.963810     30.963810     61.927621
     -4.879880     33.766013     33.766013     67.532027
     -4.869870     38.633265     38.633265     77.266529
     -4.859860     44.886089     44.886089     89.772177
     -4.849850     51.317907     51.317907    102.635815
     -4.839840     56.471763     56.471763    112.943526
     -4.829830     59.082128     59.082128    118.164256
     -4.819820     58.497405     58.497405    116.994810
     -4.809810     54.883852     54.883852    109.767704
     -4.799800     49.116370     49.116370     98.232741
     -4.789790     42.423778     42.423778     84.847555
     -4.779780     35.971073     35.971073     71.942146
     -4.769770     30.561006     30.561006     61.122013
     -4.759760     26.539122     26.539122     53.078245
     -4.749750     23.869694     23.869694     47.739389
     -4.739740     22.287631     22.287631     44.575262
     -4.729730     21.440193     21.440193     42.880385
     -4.719720     20.978301     20.978301     41.956601
     -4.709710     20.598770     20.598770     41.197539
     -4.699700     20.058567     20.058567     40.117134
     -4.689690     19.185058     19.185058     38.370115
     -4.679680     17.899628     17.899628     35.799256
     -4.669670     16.258044     16.258044     32.516087
     -4.659660     14.492311     14.492311     28.984623
     -4.649650     13.025262     13.025262     26.050524
     -4.639640     12.429910     12.429910     24.859820
     -4.629630     13.321193     13.321193     26.642386
     -4.619620     16.190481     16.190481     32.380961
     -4.609610     21.217139     21.217139     42.434278
     -4.599600     28.113951     28.113951     56.227902
     -4.589590     36.077190     36.077190     72.154381
     -4.579580     43.900805     43.900805     87.801611
     -4.569570     50.263179     50.263179    100.526358
     -4.559560     54.114373     54.114373    108.228747
     -4.549550     55.022579     55.022579    110.045158
     -4.539540     53.329516     53.329516    106.659032
     -4.529530     50.034633     50.034633    100.069267
     -4.519520     46.446126     46.446126     92.892251
     -4.509510     43.739899     43.739899     87.479798
     -4.499499     42.601178     42.601178     85.202356
     -4.489489     43.074937     43.074937     86.149874
     -4.479479     44.652888     44.652888     89.305775
     -4.469469     46.528922     46.528922     93.057844
     -4.459459     47.903475     47.903475     95.806951
     -4.449449     48.222895     48.222895     96.445790
     -4.439439     47.287857     47.287857     94.575714
     -4.429429     45.227275     45.227275     90.454550
     -4.419419     42.384450     42.384450     84.768899
     -4.409409     39.183208     39.183208     78.366417
     -4.399399     36.028777     36.028777     72.057555
     -4.389389     33.261419     33.261419     66.522839
     -4.379379     31.143429     31.143429     62.286858
     -4.369369     29.846216     29.846216     59.692433
     -4.359359     29.421983     29.421983     58.843967
     -4.349349     29.777253     29.777253     59.554506
     -4.339339     30.683296     30.683296     61.366592
     -4.329329     31.843211     31.843211     63.686422
     -4.319319     32.997464     32.997464     65.994927
     -4.309309     34.019491     34.019491     68.038983
     -4.299299     34.954078     34.954078     69.908156
     -4.289289     35.980585     35.980585     71.961170
     -4.279279     37.317066     37.317066     74.634132
     -4.269269     39.099916     39.099916     78.199833
     -4.259259     41.277045     41.277045     82.554091
     -4.249249     43.552320     43.552320     87.104640
     -4.239239     45.416947     45.416947     90.833895
     -4.229229     46.285006     46.285006     92.570013
     -4.219219     45.704449     45.704449     91.408897
     -4.209209     43.559269     43.559269     87.118539
     -4.199199     40.156711     40.156711     80.313422
     -4.189189     36.137626     36.137626     72.275252
     -4.179179     32.242384     32.242384     64.484768
     -4.169169     29.048320     29.048320     58.096641
     -4.159159     26.809444     26.809444     53.618889
     -4.149149     25.466213     25.466213     50.932425
     -4.139139     24.797302     24.797302     49.594604
     -4.129129     24.615454     24.615454     49.230907
     -4.119119     24.897639     24.897639     49.795277
     -4.109109     25.781128     25.781128     51.562256
     -4.099099     27.426775     27.426775     54.853550
     -4.089089     29.821078     29.821078     59.642156
     -4.079079     32.630993     32.630993     65.261985
     -4.069069     35.213786     35.213786     70.427573
     -4.059059     36.810748     36.810748     73.621496
     -4.049049     36.848500     36.848500     73.697000
     -4.039039     35.197654     35.197654     70.395307
     -4.029029     32.250298     32.250298     64.500595
     -4.019019     28.776237     28.776237     57.552473
     -4.009009     25.641300     25.641300     51.282599
     -3.998999     23.537986     23.537986     47.075972
     -3.988989     22.848784     22.848784     45.697568
     -3.978979     23.665058     23.665058     47.330117
     -3.968969     25.892721     25.892721     51.785442
     -3.958959     29.349826     29.349826     58.699653
     -3.948949     33.805478     33.805478     67.610956
     -3.938939     38.977118     38.977118     77.954236
     -3.928929     44.537715     44.537715     89.075430
     -3.918919     50.163420     50.163420    100.326841
     -3.908909     55.600842     55.600842    111.201684
     -3.898899     60.698312     60.698312    121.396623
     -3.888889     65.358113     65.358113    130.716227
     -3.878879     69.419834     69.419834    138.839668
     -3.868869     72.542461     72.542461    145.084923
     -3.858859     74.174498     74.174498    148.348996
     -3.848849     73.667869     73.667869    147.335738
     -3.838839     70.515725     70.515725    141.031450
     -3.828829     64.616760     64.616760    129.233520
     -3.818819     56.436390     56.436390    112.872779
     -3.808809     46.972513     46.972513     93.945025
     -3.798799     37.523268     37.523268     75.046536
     -3.788789     29.345449     29.345449     58.690897
     -3.778779     23.334616     23.334616     46.669233
     -3.768769     19.835072     19.835072     39.670145
     -3.758759     18.623387     18.623387     37.246775
     -3.748749     19.043896     19.043896     38.087792
     -3.738739     20.236234     20.236234     40.472468
     -3.728729     21.386660     21.386660     42.773321
     -3.718719     21.943843     21.943843     43.887687
     -3.708709     21.753687     21.753687     43.507374
     -3.698699     21.083010     21.083010     42.166020
     -3.688689     20.521725     20.521725     41.043450
     -3.678679     20.780911     20.780911     41.561822
     -3.668669     22.437511     22.437511     44.875023
     -3.658659     25.704428     25.704428     51.408857
     -3.648649     30.310781     30.310781     60.621561
     -3.638639     35.547200     35.547200     71.094400
     -3.628629     40.468238     40.468238     80.936476
     -3.618619     44.174661     44.174661     88.349322
     -3.608609     46.062191     46.062191     92.124382
     -3.598599     45.945095     45.945095     91.890191
     -3.588589     44.030606     44.030606     88.061211
     -3.578579     40.789041     40.789041     81.578082
     -3.568569     36.792722     36.792722     73.585444
     -3.558559     32.578185     32.578185     65.156371
     -3.548549     28.550815     28.550815     57.101631
     -3.538539     24.932219     24.932219     49.864438
     -3.528529     21.753867     21.753867     43.507734
     -3.518519     18.904431     18.904431     37.808862
     -3.508509     16.223778     16.223778     32.447556
     -3.498498     13.610070     13.610070     27.220139
     -3.488488     11.092582     11.092582     22.185165
     -3.478478      8.837769      8.837769     17.675537
     -3.468468      7.090354      7.090354     14.180707
     -3.458458      6.080259      6.080259     12.160518
     -3.448448      5.933461      5.933461     11.866921
     -3.438438      6.614572      6.614572     13.229144
     -3.428428      7.915725      7.915725     15.831450
     -3.418418      9.497995      9.497995     18.995990
     -3.408408     10.982838     10.982838     21.965676
     -3.398398     12.074174     12.074174     24.148349
     -3.388388     12.670950     12.670950     25.341900
     -3.378378     12.921635     12.921635     25.843271
     -3.368368     13.189876     13.189876     26.379752
     -3.358358     13.939411     13.939411     27.878822
     -3.348348     15.582889     15.582889     31.165777
     -3.338338     18.349290     18.349290     36.698581
     -3.328328     22.204584     22.204584     44.409168
     -3.318318     26.830084     26.830084     53.660167
     -3.308308     31.648968     31.648968     63.297937
     -3.298298     35.900365     35.900365     71.800730
     -3.288288     38.772048     38.772048     77.544096
     -3.278278     39.589469     39.589469     79.178939
     -3.268268     38.017133     38.017133     76.034266
     -3.258258     34.190242     34.190242     68.380485
     -3.248248     28.701723     28.701723     57.403446
     -3.238238     22.432119     22.432119     44.864239
     -3.228228     16.290449     16.290449     32.580898
     -3.218218     10.977444     10.977444     21.954889
     -3.208208      6.861065      6.861065     13.722130
     -3.198198      3.988056      3.988056      7.976112
     -3.188188      2.191630      2.191630      4.383259
     -3.178178      1.229001      1.229001      2.458003
     -3.168168      0.895614      0.895614      1.791227
     -3.158158      1.093140      1.093140      2.186280
     -3.148148      1.851915      1.851915      3.703830
     -3.138138      3.315688      3.315688      6.631376
     -3.128128      5.693222      5.693222     11.386444
     -3.118118      9.179136      9.179136     18.358272
     -3.108108     13.853729     13.853729     27.707458
     -3.098098     19.586770     19.586770     39.173540
     -3.088088     25.983101     25.983101     51.966203
     -3.078078     32.405249     32.405249     64.810498
     -3.068068     38.084155     38.084155     76.168310
     -3.058058     42.291387     42.291387     84.582774
     -3.048048     44.514658     44.514658     89.029316
     -3.038038     44.573402     44.573402     89.146804
     -3.028028     42.638419     42.638419     85.276838
     -3.018018     39.163943     39.163943     78.327886
     -3.008008     34.774598     34.774598     69.549196
     -2.997998     30.153841     30.153841     60.307681
     -2.987988     25.957807     25.957807     51.915614
     -2.977978     22.751522     22.751522     45.503044
     -2.967968     20.955060     20.955060     41.910119
     -2.957958     20.797820     20.797820     41.595639
     -2.947948     22.292655     22.292655     44.585309
     -2.937938     25.240862     25.240862     50.481724
     -2.927928     29.264701     29.264701     58.529401
     -2.917918     33.853030     33.853030     67.706060
     -2.907908     38.411720     38.411720     76.823439
     -2.897898     42.327251     42.327251     84.654502
     -2.887888     45.057889     45.057889     90.115779
     -2.877878     46.247821     46.247821     92.495642
     -2.867868     45.826568     45.826568     91.653136
     -2.857858     44.038191     44.038191     88.076382
     -2.847848     41.364559     41.364559     82.729119
     -2.837838     38.358764     38.358764     76.717527
     -2.827828     35.456938     35.456938     70.913875
     -2.817818     32.854676     32.854676     65.709351
     -2.807808     30.503986     30.503986     61.007972
     -2.797798     28.224392     28.224392     56.448785
     -2.787788     25.862575     25.862575     51.725149
     -2.777778     23.412175     23.412175     46.824349
     -2.767768     21.031757     21.031757     42.063514
     -2.757758     18.959497     18.959497     37.918995
     -2.747748     17.383428     17.383428     34.766857
     -2.737738     16.350696     16.350696     32.701392
     -2.727728     15.772692     15.772692     31.545384
     -2.717718     15.520235     15.520235     31.040470
     -2.707708     15.542796     15.542796     31.085592
     -2.697698     15.927360     15.927360     31.854719
     -2.687688     16.849976     16.849976     33.699952
     -2.677678     18.444172     18.444172     36.888344
     -2.667668     20.669355     20.669355     41.338711
     -2.657658     23.268830     23.268830     46.537660
     -2.647648     25.853682     25.853682     51.707365
     -2.637638     28.068252     28.068252     56.136504
     -2.627628     29.738689     29.738689     59.477378
     -2.617618     30.916702     30.916702     61.833403
     -2.607608     31.800081     31.800081     63.600162
     -2.597598     32.590643     32.590643     65.181287
     -2.587588     33.381532     33.381532     66.763064
     -2.577578     34.129570     34.129570     68.259139
     -2.567568     34.699172     34.699172     69.398345
     -2.557558     34.921416     34.921416     69.842832
     -2.547548     34.626842     34.626842     69.253684
     -2.537538     33.660298     33.660298     67.320597
     -2.527528     31.916772     31.916772     63.833543
     -2.517518     29.416637     29.416637     58.833273
     -2.507508     26.386471     26.386471     52.772942
     -2.497497     23.278678     23.278678     46.557357
     -2.487487     20.683978     20.683978     41.367955
     -2.477477     19.153565     19.153565     38.307129
     -2.467467     19.007459     19.007459     38.014918
     -2.457457     20.221953     20.221953     40.443905
     -2.447447     22.453386     22.453386     44.906773
     -2.437437     25.189812     25.189812     50.379624
     -2.427427     27.960886     27.960886     55.921772
     -2.417417     30.508395     30.508395     61.016791
     -2.407407     32.837525     32.837525     65.675050
     -2.397397     35.124832     35.124832     70.249664
     -2.387387     37.527932     37.527932     75.055863
     -2.377377     39.992167     39.992167     79.984334
     -2.367367     42.156496     42.156496     84.312991
     -2.357357     43.418967     43.418967     86.837933
     -2.347347     43.148130     43.148130     86.296260
     -2.337337     40.953806     40.953806     81.907611
     -2.327327     36.895755     36.895755     73.791509
     -2.317317     31.533289     31.533289     63.066578
     -2.307307     25.792589     25.792589     51.585179
     -2.297297     20.711302     20.711302     41.422604
     -2.287287     17.166187     17.166187     34.332374
     -2.277277     15.679256     15.679256     31.358513
     -2.267267     16.347945     16.347945     32.695890
     -2.257257     18.891118     18.891118     37.782237
     -2.247247     22.770565     22.770565     45.541130
     -2.237237     27.339204     27.339204     54.678408
     -2.227227     31.972125     31.972125     63.944250
     -2.217217     36.148466     36.148466     72.296931
     -2.207207     39.472824     39.472824     78.945648
     -2.197197     41.653467     41.653467     83.306934
     -2.187187     42.477932     42.477932     84.955864
     -2.177177     41.825505     41.825505     83.651010
     -2.167167     39.723467     39.723467     79.446934
     -2.157157     36.408229     36.408229     72.816458
     -2.147147     32.328817     32.328817     64.657633
     -2.137137     28.053582     28.053582     56.107165
     -2.127127     24.102018     24.102018     48.204036
     -2.117117     20.780298     20.780298     41.560596
     -2.107107     18.108108     18.108108     36.216215
     -2.097097     15.875233     15.875233     31.750467
     -2.087087     13.791860     13.791860     27.583719
     -2.077077     11.647081     11.647081     23.294163
     -2.067067      9.396159      9.396159     18.792318
     -2.057057      7.148286      7.148286     14.296573
     -2.047047      5.084459      5.084459     10.168918
     -2.037037      3.363409      3.363409      6.726818
     -2.027027      2.063063      2.063063      4.126127
     -2.017017      1.172600      1.172600      2.345200
     -2.007007      0.621189      0.621189      1.242377
     -1.996997      0.318634      0.318634      0.637267
     -1.986987      0.189091      0.189091      0.378183
     -1.976977      0.191291      0.191291      0.382581
     -1.966967      0.327483      0.327483      0.654967
     -1.956957      0.645001      0.645001      1.290003
     -1.946947      1.230711      1.230711      2.461421
     -1.936937      2.194589      2.194589      4.389178
     -1.926927      3.638691      3.638691      7.277382
     -1.916917      5.614001      5.614001     11.228002
     -1.906907      8.077619      8.077619     16.155238
     -1.896897     10.869602     10.869602     21.739204
     -1.886887     13.725669     13.725669     27.451339
     -1.876877     16.328014     16.328014     32.656028
     -1.866867     18.379344     18.379344     36.758688
     -1.856857     19.675613     19.675613     39.351226
     -1.846847     20.155121     20.155121     40.310241
     -1.836837     19.910633     19.910633     39.821265
     -1.826827     19.159592     19.159592     38.319184
     -1.816817     18.175179     18.175179     36.350357
     -1.806807     17.193340     17.193340     34.386680
     -1.796797     16.327683     16.327683     32.655367
     -1.786787     15.532606     15.532606     31.065212
     -1.776777     14.640173     14.640173     29.280346
     -1.766767     13.459100     13.459100     26.918200
     -1.756757     11.887429     11.887429     23.774858
     -1.746747      9.981778      9.981778     19.963557
     -1.736737      7.953224      7.953224     15.906448
     -1.726727      6.103211      6.103211     12.206423
     -1.716717      4.741227      4.741227      9.482454
     -1.706707      4.122327      4.122327      8.244654
     -1.696697      4.415675      4.415675      8.831350
     -1.686687      5.689255      5.689255     11.378511
     -1.676677      7.890525      7.890525     15.781049
     -1.666667     10.819365     10.819365     21.638729
     -1.656657     14.113016     14.113016     28.226032
     -1.646647     17.273013     17.273013     34.546027
     -1.636637     19.751289     19.751289     39.502579
     -1.626627     21.082389     21.082389     42.164779
