# EIG2DOS: Utility for SIESTA to obtain the electronic density of states
#  E. Artacho, Apr 1999, A. Garcia, Apr 2012
#  Nick R. Papior, Feb 2017
# ------------------------------------------
# Eigenvalues calculated from a non-polarized calculation
# Eigenvalues read from siesta.EIG
# Kpoint weights read from siesta.KP
# Using smearing parameter:   0.0500
# Using 1000 points in the energy range
# Selected bands: 1 to: 2981
# Emin, Emax in file for selected band(s):    -27.3785901    218.3930790
# Nbands, Nspin, Nk   =   2981     1     1
# E_F                 =    -4.2054 eV --> (shifted to ZERO)
# Broadening          =     0.0500 eV
#
#        E            N(up)  (=)   N(down)         Ntot
     -5.000000     31.857124     31.857124     63.714249
     -4.989990     36.982724     36.982724     73.965448
     -4.979980     41.789462     41.789462     83.578923
     -4.969970     45.438267     45.438267     90.876534
     -4.959960     47.235065     47.235065     94.470131
     -4.949950     46.862812     46.862812     93.725624
     -4.939940     44.490815     44.490815     88.981631
     -4.929930     40.732933     40.732933     81.465865
     -4.919920     36.495114     36.495114     72.990227
     -4.909910     32.781828     32.781828     65.563656
     -4.899900     30.511101     30.511101     61.022202
     -4.889890     30.349817     30.349817     60.699633
     -4.879880     32.566471     32.566471     65.132942
     -4.869870     36.922229     36.922229     73.844457
     -4.859860     42.655785     42.655785     85.311570
     -4.849850     48.618460     48.618460     97.236921
     -4.839840     53.562179     53.562179    107.124358
     -4.829830     56.499555     56.499555    112.999110
     -4.819820     56.997126     56.997126    113.994251
     -4.809810     55.274266     55.274266    110.548531
     -4.799800     52.062870     52.062870    104.125741
     -4.789790     48.292996     48.292996     96.585991
     -4.779780     44.746822     44.746822     89.493644
     -4.769770     41.827215     41.827215     83.654430
     -4.759760     39.519948     39.519948     79.039896
     -4.749750     37.530748     37.530748     75.061497
     -4.739740     35.502202     35.502202     71.004404
     -4.729730     33.196176     33.196176     66.392353
     -4.719720     30.566373     30.566373     61.132746
     -4.709710     27.715504     27.715504     55.431008
     -4.699700     24.793186     24.793186     49.586373
     -4.689690     21.913210     21.913210     43.826421
     -4.679680     19.144389     19.144389     38.288778
     -4.669670     16.576055     16.576055     33.152109
     -4.659660     14.410533     14.410533     28.821067
     -4.649650     13.017377     13.017377     26.034754
     -4.639640     12.902112     12.902112     25.804224
     -4.629630     14.580110     14.580110     29.160221
     -4.619620     18.385100     18.385100     36.770201
     -4.609610     24.272634     24.272634     48.545268
     -4.599600     31.697651     31.697651     63.395303
     -4.589590     39.642006     39.642006     79.284012
     -4.579580     46.827533     46.827533     93.655067
     -4.569570     52.073116     52.073116    104.146232
     -4.559560     54.671979     54.671979    109.343959
     -4.549550     54.629732     54.629732    109.259464
     -4.539540     52.648348     52.648348    105.296696
     -4.529530     49.851545     49.851545     99.703090
     -4.519520     47.364658     47.364658     94.729315
     -4.509510     45.924000     45.924000     91.848001
     -4.499499     45.668228     45.668228     91.336455
     -4.489489     46.175334     46.175334     92.350668
     -4.479479     46.701642     46.701642     93.403285
     -4.469469     46.503040     46.503040     93.006081
     -4.459459     45.102786     45.102786     90.205573
     -4.449449     42.413811     42.413811     84.827622
     -4.439439     38.700110     38.700110     77.400220
     -4.429429     34.433073     34.433073     68.866147
     -4.419419     30.131157     30.131157     60.262314
     -4.409409     26.253284     26.253284     52.506568
     -4.399399     23.163735     23.163735     46.327470
     -4.389389     21.135310     21.135310     42.270620
     -4.379379     20.342049     20.342049     40.684098
     -4.369369     20.820491     20.820491     41.640982
     -4.359359     22.424241     22.424241     44.848481
     -4.349349     24.821814     24.821814     49.643628
     -4.339339     27.570630     27.570630     55.141260
     -4.329329     30.252594     30.252594     60.505188
     -4.319319     32.613378     32.613378     65.226756
     -4.309309     34.637697     34.637697     69.275394
     -4.299299     36.520561     36.520561     73.041122
     -4.289289     38.540682     38.540682     77.081364
     -4.279279     40.883401     40.883401     81.766801
     -4.269269     43.483110     43.483110     86.966221
     -4.259259     45.955715     45.955715     91.911430
     -4.249249     47.668004     47.668004     95.336008
     -4.239239     47.941720     47.941720     95.883441
     -4.229229     46.326202     46.326202     92.652404
     -4.219219     42.824680     42.824680     85.649359
     -4.209209     37.961440     37.961440     75.922879
     -4.199199     32.642613     32.642613     65.285226
     -4.189189     27.862854     27.862854     55.725708
     -4.179179     24.386897     24.386897     48.773793
     -4.169169     22.543775     22.543775     45.087550
     -4.159159     22.210315     22.210315     44.420629
     -4.149149     22.967808     22.967808     45.935615
     -4.139139     24.341207     24.341207     48.682413
     -4.129129     26.004301     26.004301     52.008602
     -4.119119     27.860108     27.860108     55.720216
     -4.109109     29.967377     29.967377     59.934753
     -4.099099     32.358451     32.358451     64.716902
     -4.089089     34.852725     34.852725     69.705451
     -4.079079     36.983411     36.983411     73.966823
     -4.069069     38.105303     38.105303     76.210607
     -4.059059     37.652862     37.652862     75.305724
     -4.049049     35.424213     35.424213     70.848425
     -4.039039     31.739303     31.739303     63.478606
     -4.029029     27.383306     27.383306     54.766611
     -4.019019     23.362005     23.362005     46.724010
     -4.009009     20.590687     20.590687     41.181373
     -3.998999     19.656153     19.656153     39.312306
     -3.988989     20.732445     20.732445     41.464891
     -3.978979     23.642265     23.642265     47.284530
     -3.968969     27.994355     27.994355     55.988711
     -3.958959     33.319994     33.319994     66.639989
     -3.948949     39.167286     39.167286     78.334572
     -3.938939     45.154035     45.154035     90.308069
     -3.928929     50.997040     50.997040    101.994081
     -3.918919     56.522729     56.522729    113.045459
     -3.908909     61.643774     61.643774    123.287548
     -3.898899     66.287487     66.287487    132.574974
     -3.888889     70.291880     70.291880    140.583760
     -3.878879     73.322236     73.322236    146.644473
     -3.868869     74.871332     74.871332    149.742663
     -3.858859     74.373985     74.373985    148.747971
     -3.848849     71.407082     71.407082    142.814164
     -3.838839     65.895307     65.895307    131.790613
     -3.828829     58.231050     58.231050    116.462100
     -3.818819     49.250178     49.250178     98.500356
     -3.808809     40.064344     40.064344     80.128688
     -3.798799     31.805332     31.805332     63.610663
     -3.788789     25.364488     25.364488     50.728976
     -3.778779     21.204476     21.204476     42.408951
     -3.768769     19.290494     19.290494     38.580988
     -3.758759     19.149628     19.149628     38.299256
     -3.748749     20.033502     20.033502     40.067004
     -3.738739     21.137791     21.137791     42.275581
     -3.728729     21.823280     21.823280     43.646559
     -3.718719     21.785418     21.785418     43.570836
     -3.708709     21.130446     21.130446     42.260892
     -3.698699     20.334967     20.334967     40.669935
     -3.688689     20.091590     20.091590     40.183181
     -3.678679     21.074433     21.074433     42.148865
     -3.668669     23.689052     23.689052     47.378103
     -3.658659     27.889735     27.889735     55.779470
     -3.648649     33.137831     33.137831     66.275662
     -3.638639     38.530174     38.530174     77.060347
     -3.628629     43.058413     43.058413     86.116827
     -3.618619     45.900843     45.900843     91.801685
     -3.608609     46.634097     46.634097     93.268194
     -3.598599     45.294788     45.294788     90.589575
     -3.588589     42.294867     42.294867     84.589733
     -3.578579     38.252958     38.252958     76.505915
     -3.568569     33.816277     33.816277     67.632555
     -3.558559     29.521411     29.521411     59.042821
     -3.548549     25.709923     25.709923     51.419846
     -3.538539     22.501136     22.501136     45.002271
     -3.528529     19.825217     19.825217     39.650435
     -3.518519     17.513998     17.513998     35.027995
     -3.508509     15.424648     15.424648     30.849296
     -3.498498     13.546935     13.546935     27.093869
     -3.488488     12.042040     12.042040     24.084081
     -3.478478     11.189027     11.189027     22.378054
     -3.468468     11.258868     11.258868     22.517736
     -3.458458     12.370206     12.370206     24.740411
     -3.448448     14.389171     14.389171     28.778343
     -3.438438     16.918004     16.918004     33.836009
     -3.428428     19.384175     19.384175     38.768351
     -3.418418     21.205184     21.205184     42.410367
     -3.408408     21.974798     21.974798     43.949596
     -3.398398     21.604574     21.604574     43.209148
     -3.388388     20.367304     20.367304     40.734609
     -3.378378     18.824830     18.824830     37.649661
     -3.368368     17.667111     17.667111     35.334223
     -3.358358     17.521199     17.521199     35.042398
     -3.348348     18.791772     18.791772     37.583544
     -3.338338     21.569986     21.569986     43.139972
     -3.328328     25.613512     25.613512     51.227025
     -3.318318     30.382089     30.382089     60.764178
     -3.308308     35.119100     35.119100     70.238199
     -3.298298     38.984685     38.984685     77.969371
     -3.288288     41.240773     41.240773     82.481546
     -3.278278     41.451742     41.451742     82.903483
     -3.268268     39.622001     39.622001     79.244002
     -3.258258     36.189851     36.189851     72.379701
     -3.248248     31.857934     31.857934     63.715868
     -3.238238     27.332454     27.332454     54.664908
     -3.228228     23.099582     23.099582     46.199163
     -3.218218     19.343055     19.343055     38.686109
     -3.208208     16.018564     16.018564     32.037129
     -3.198198     13.012598     13.012598     26.025196
     -3.188188     10.284149     10.284149     20.568297
     -3.178178      7.925167      7.925167     15.850334
     -3.168168      6.139731      6.139731     12.279462
     -3.158158      5.183396      5.183396     10.366793
     -3.148148      5.302497      5.302497     10.604994
     -3.138138      6.684472      6.684472     13.368945
     -3.128128      9.406806      9.406806     18.813612
     -3.118118     13.375070     13.375070     26.750140
     -3.108108     18.265996     18.265996     36.531992
     -3.098098     23.516115     23.516115     47.032229
     -3.088088     28.395080     28.395080     56.790161
     -3.078078     32.166939     32.166939     64.333877
     -3.068068     34.289550     34.289550     68.579101
     -3.058058     34.566700     34.566700     69.133399
     -3.048048     33.178558     33.178558     66.357117
     -3.038038     30.574947     30.574947     61.149895
     -3.028028     27.288992     27.288992     54.577984
     -3.018018     23.769268     23.769268     47.538535
     -3.008008     20.309455     20.309455     40.618910
     -2.997998     17.089938     17.089938     34.179876
     -2.987988     14.280147     14.280147     28.560294
     -2.977978     12.124545     12.124545     24.249089
     -2.967968     10.957330     10.957330     21.914659
     -2.957958     11.137075     11.137075     22.274150
     -2.947948     12.930881     12.930881     25.861762
     -2.937938     16.393210     16.393210     32.786420
     -2.927928     21.282355     21.282355     42.564709
     -2.917918     27.047873     27.047873     54.095745
     -2.907908     32.907627     32.907627     65.815253
     -2.897898     38.009114     38.009114     76.018228
     -2.887888     41.636914     41.636914     83.273829
     -2.877878     43.398988     43.398988     86.797976
     -2.867868     43.318558     43.318558     86.637115
     -2.857858     41.787440     41.787440     83.574880
     -2.847848     39.393838     39.393838     78.787677
     -2.837838     36.696338     36.696338     73.392676
     -2.827828     34.043705     34.043705     68.087409
     -2.817818     31.518128     31.518128     63.036256
     -2.807808     29.016199     29.016199     58.032399
     -2.797798     26.410813     26.410813     52.821625
     -2.787788     23.698165     23.698165     47.396330
     -2.777778     21.049213     21.049213     42.098426
     -2.767768     18.744770     18.744770     37.489539
     -2.757758     17.042430     17.042430     34.084861
     -2.747748     16.061061     16.061061     32.122122
     -2.737738     15.752833     15.752833     31.505666
     -2.727728     15.973638     15.973638     31.947276
     -2.717718     16.597249     16.597249     33.194497
     -2.707708     17.589582     17.589582     35.179164
     -2.697698     18.988120     18.988120     37.976240
     -2.687688     20.801023     20.801023     41.602047
     -2.677678     22.903519     22.903519     45.807039
     -2.667668     25.018796     25.018796     50.037591
     -2.657658     26.815481     26.815481     53.630963
     -2.647648     28.069834     28.069834     56.139668
     -2.637638     28.788646     28.788646     57.577293
     -2.627628     29.208924     29.208924     58.417848
     -2.617618     29.670094     29.670094     59.340188
     -2.607608     30.436168     30.436168     60.872336
     -2.597598     31.570222     31.570222     63.140444
     -2.587588     32.918156     32.918156     65.836313
     -2.577578     34.183504     34.183504     68.367009
     -2.567568     35.029231     35.029231     70.058462
     -2.557558     35.154300     35.154300     70.308600
     -2.547548     34.339496     34.339496     68.678993
     -2.537538     32.489821     32.489821     64.979643
     -2.527528     29.690612     29.690612     59.381223
     -2.517518     26.255961     26.255961     52.511921
     -2.507508     22.721870     22.721870     45.443739
     -2.497497     19.750866     19.750866     39.501732
     -2.487487     17.961763     17.961763     35.923525
     -2.477477     17.744722     17.744722     35.489443
     -2.467467     19.138016     19.138016     38.276033
     -2.457457     21.821222     21.821222     43.642443
     -2.447447     25.232630     25.232630     50.465261
     -2.437437     28.767251     28.767251     57.534502
     -2.427427     31.975957     31.975957     63.951914
     -2.417417     34.681554     34.681554     69.363109
     -2.407407     36.959599     36.959599     73.919197
     -2.397397     38.991551     38.991551     77.983103
     -2.387387     40.860973     40.860973     81.721946
     -2.377377     42.398961     42.398961     84.797922
     -2.367367     43.170210     43.170210     86.340421
     -2.357357     42.625511     42.625511     85.251023
     -2.347347     40.358769     40.358769     80.717538
     -2.337337     36.344555     36.344555     72.689110
     -2.327327     31.035750     31.035750     62.071499
     -2.317317     25.271923     25.271923     50.543845
     -2.307307     20.045150     20.045150     40.090300
     -2.297297     16.232101     16.232101     32.464202
     -2.287287     14.397479     14.397479     28.794959
     -2.277277     14.719031     14.719031     29.438063
     -2.267267     17.021686     17.021686     34.043372
     -2.257257     20.873515     20.873515     41.747031
     -2.247247     25.695723     25.695723     51.391446
     -2.237237     30.857289     30.857289     61.714577
     -2.227227     35.744388     35.744388     71.488777
     -2.217217     39.807498     39.807498     79.614996
     -2.207207     42.596037     42.596037     85.192075
     -2.197197     43.792947     43.792947     87.585895
     -2.187187     43.257499     43.257499     86.514999
     -2.177177     41.071101     41.071101     82.142203
     -2.167167     37.562050     37.562050     75.124099
     -2.157157     33.275295     33.275295     66.550590
     -2.147147     28.867783     28.867783     57.735566
     -2.137137     24.948931     24.948931     49.897862
     -2.127127     21.925960     21.925960     43.851919
     -2.117117     19.922599     19.922599     39.845198
     -2.107107     18.803696     18.803696     37.607392
     -2.097097     18.279573     18.279573     36.559146
     -2.087087     18.025019     18.025019     36.050038
     -2.077077     17.756189     17.756189     35.512378
     -2.067067     17.253233     17.253233     34.506466
     -2.057057     16.357810     16.357810     32.715620
     -2.047047     14.980462     14.980462     29.960923
     -2.037037     13.124988     13.124988     26.249976
     -2.027027     10.906304     10.906304     21.812607
     -2.017017      8.533764      8.533764     17.067528
     -2.007007      6.255670      6.255670     12.511339
     -1.996997      4.289706      4.289706      8.579412
     -1.986987      2.774191      2.774191      5.548382
     -1.976977      1.760924      1.760924      3.521849
     -1.966967      1.245571      1.245571      2.491141
     -1.956957      1.213239      1.213239      2.426478
     -1.946947      1.673249      1.673249      3.346498
     -1.936937      2.665414      2.665414      5.330829
     -1.926927      4.234045      4.234045      8.468090
     -1.916917      6.380183      6.380183     12.760366
     -1.906907      9.013458      9.013458     18.026915
     -1.896897     11.928103     11.928103     23.856206
     -1.886887     14.819863     14.819863     29.639725
     -1.876877     17.343759     17.343759     34.687518
     -1.866867     19.195302     19.195302     38.390603
     -1.856857     20.188568     20.188568     40.377136
     -1.846847     20.306189     20.306189     40.612379
     -1.836837     19.704230     19.704230     39.408461
     -1.826827     18.665221     18.665221     37.330442
     -1.816817     17.506407     17.506407     35.012814
     -1.806807     16.469332     16.469332     32.938664
     -1.796797     15.634003     15.634003     31.268005
     -1.786787     14.900480     14.900480     29.800960
     -1.776777     14.053235     14.053235     28.106470
     -1.766767     12.879914     12.879914     25.759827
     -1.756757     11.284429     11.284429     22.568858
     -1.746747      9.338194      9.338194     18.676388
     -1.736737      7.251181      7.251181     14.502363
     -1.726727      5.290031      5.290031     10.580062
     -1.716717      3.693454      3.693454      7.386908
     -1.706707      2.624532      2.624532      5.249063
     -1.696697      2.167807      2.167807      4.335615
     -1.686687      2.350003      2.350003      4.700007
     -1.676677      3.153889      3.153889      6.307779
     -1.666667      4.507685      4.507685      9.015370
     -1.656657      6.257058      6.257058     12.514116
     -1.646647      8.147528      8.147528     16.295057
     -1.636637      9.848277      9.848277     19.696553
     -1.626627     11.029481     11.029481     22.058962
