# EIG2DOS: Utility for SIESTA to obtain the electronic density of states
#  E. Artacho, Apr 1999, A. Garcia, Apr 2012
#  Nick R. Papior, Feb 2017
# ------------------------------------------
# Eigenvalues calculated from a non-polarized calculation
# Eigenvalues read from siesta.EIG
# Kpoint weights read from siesta.KP
# Using smearing parameter:   0.0500
# Using 1000 points in the energy range
# Selected bands: 1 to: 2981
# Emin, Emax in file for selected band(s):    -27.2119096    218.3799390
# Nbands, Nspin, Nk   =   2981     1     1
# E_F                 =    -4.2206 eV --> (shifted to ZERO)
# Broadening          =     0.0500 eV
#
#        E            N(up)  (=)   N(down)         Ntot
     -5.000000     32.524186     32.524186     65.048373
     -4.989990     37.188231     37.188231     74.376461
     -4.979980     41.443394     41.443394     82.886789
     -4.969970     44.582865     44.582865     89.165730
     -4.959960     46.034315     46.034315     92.068631
     -4.949950     45.548737     45.548737     91.097475
     -4.939940     43.289066     43.289066     86.578132
     -4.929930     39.797728     39.797728     79.595456
     -4.919920     35.876945     35.876945     71.753890
     -4.909910     32.436063     32.436063     64.872125
     -4.899900     30.339989     30.339989     60.679977
     -4.889890     30.259306     30.259306     60.518611
     -4.879880     32.513784     32.513784     65.027568
     -4.869870     36.931355     36.931355     73.862710
     -4.859860     42.788207     42.788207     85.576414
     -4.849850     48.905278     48.905278     97.810555
     -4.839840     53.924143     53.924143    107.848287
     -4.829830     56.691524     56.691524    113.383049
     -4.819820     56.605648     56.605648    113.211296
     -4.809810     53.775848     53.775848    107.551696
     -4.799800     48.929097     48.929097     97.858194
     -4.789790     43.117289     43.117289     86.234578
     -4.779780     37.365300     37.365300     74.730601
     -4.769770     32.405242     32.405242     64.810485
     -4.759760     28.574651     28.574651     57.149302
     -4.749750     25.866665     25.866665     51.733329
     -4.739740     24.061597     24.061597     48.123195
     -4.729730     22.862469     22.862469     45.724938
     -4.719720     21.987271     21.987271     43.974541
     -4.709710     21.210217     21.210217     42.420435
     -4.699700     20.372677     20.372677     40.745354
     -4.689690     19.393630     19.393630     38.787261
     -4.679680     18.298553     18.298553     36.597107
     -4.669670     17.260551     17.260551     34.521103
     -4.659660     16.623201     16.623201     33.246402
     -4.649650     16.868547     16.868547     33.737093
     -4.639640     18.513194     18.513194     37.026389
     -4.629630     21.949722     21.949722     43.899445
     -4.619620     27.279670     27.279670     54.559339
     -4.609610     34.195008     34.195008     68.390016
     -4.599600     41.957238     41.957238     83.914477
     -4.589590     49.502560     49.502560     99.005120
     -4.579580     55.669469     55.669469    111.338937
     -4.569570     59.501915     59.501915    119.003831
     -4.559560     60.537597     60.537597    121.075194
     -4.549550     58.971639     58.971639    117.943279
     -4.539540     55.614304     55.614304    111.228608
     -4.529530     51.636939     51.636939    103.273878
     -4.519520     48.190998     48.190998     96.381996
     -4.509510     46.043690     46.043690     92.087380
     -4.499499     45.368401     45.368401     90.736802
     -4.489489     45.760366     45.760366     91.520731
     -4.479479     46.452089     46.452089     92.904179
     -4.469469     46.624985     46.624985     93.249969
     -4.459459     45.687894     45.687894     91.375788
     -4.449449     43.426356     43.426356     86.852713
     -4.439439     39.996724     39.996724     79.993448
     -4.429429     35.809009     35.809009     71.618018
     -4.419419     31.377881     31.377881     62.755763
     -4.409409     27.209211     27.209211     54.418422
     -4.399399     23.743910     23.743910     47.487821
     -4.389389     21.334856     21.334856     42.669712
     -4.379379     20.217840     20.217840     40.435681
     -4.369369     20.461512     20.461512     40.923023
     -4.359359     21.921555     21.921555     43.843110
     -4.349349     24.245589     24.245589     48.491179
     -4.339339     26.957238     26.957238     53.914476
     -4.329329     29.601777     29.601777     59.203554
     -4.319319     31.894322     31.894322     63.788644
     -4.309309     33.802915     33.802915     67.605831
     -4.299299     35.526744     35.526744     71.053487
     -4.289289     37.374865     37.374865     74.749731
     -4.279279     39.589759     39.589759     79.179518
     -4.269269     42.180812     42.180812     84.361623
     -4.259259     44.835092     44.835092     89.670184
     -4.249249     46.956027     46.956027     93.912053
     -4.239239     47.840594     47.840594     95.681188
     -4.229229     46.945443     46.945443     93.890886
     -4.219219     44.135927     44.135927     88.271854
     -4.209209     39.797926     39.797926     79.595851
     -4.199199     34.744050     34.744050     69.488100
     -4.189189     29.944714     29.944714     59.889428
     -4.179179     26.204458     26.204458     52.408917
     -4.169169     23.929546     23.929546     47.859091
     -4.159159     23.080225     23.080225     46.160451
     -4.149149     23.305328     23.305328     46.610655
     -4.139139     24.173481     24.173481     48.346962
     -4.129129     25.382624     25.382624     50.765247
     -4.119119     26.852609     26.852609     53.705217
     -4.109109     28.665983     28.665983     57.331966
     -4.099099     30.894196     30.894196     61.788391
     -4.089089     33.405371     33.405371     66.810741
     -4.079079     35.769359     35.769359     71.538719
     -4.069069     37.337033     37.337033     74.674067
     -4.059059     37.480850     37.480850     74.961700
     -4.049049     35.886893     35.886893     71.773787
     -4.039039     32.746275     32.746275     65.492550
     -4.029029     28.740155     28.740155     57.480310
     -4.019019     24.823244     24.823244     49.646488
     -4.009009     21.915698     21.915698     43.831396
     -3.998999     20.648345     20.648345     41.296689
     -3.988989     21.257239     21.257239     42.514478
     -3.978979     23.631780     23.631780     47.263560
     -3.968969     27.447576     27.447576     54.895151
     -3.958959     32.299616     32.299616     64.599231
     -3.948949     37.787861     37.787861     75.575723
     -3.938939     43.557720     43.557720     87.115440
     -3.928929     49.322265     49.322265     98.644529
     -3.918919     54.879629     54.879629    109.759257
     -3.908909     60.110022     60.110022    120.220044
     -3.898899     64.927173     64.927173    129.854345
     -3.888889     69.184469     69.184469    138.368938
     -3.878879     72.579115     72.579115    145.158230
     -3.868869     74.621908     74.621908    149.243816
     -3.858859     74.721007     74.721007    149.442015
     -3.848849     72.371345     72.371345    144.742689
     -3.838839     67.379854     67.379854    134.759708
     -3.828829     60.027022     60.027022    120.054045
     -3.818819     51.085194     51.085194    102.170387
     -3.808809     41.673182     41.673182     83.346364
     -3.798799     32.994248     32.994248     65.988495
     -3.788789     26.047753     26.047753     52.095507
     -3.778779     21.407271     21.407271     42.814542
     -3.768769     19.125472     19.125472     38.250943
     -3.758759     18.779415     18.779415     37.558829
     -3.748749     19.629642     19.629642     39.259284
     -3.738739     20.843114     20.843114     41.686229
     -3.728729     21.722871     21.722871     43.445743
     -3.718719     21.890999     21.890999     43.781999
     -3.708709     21.382029     21.382029     42.764059
     -3.698699     20.620607     20.620607     41.241213
     -3.688689     20.281338     20.281338     40.562675
     -3.678679     21.059808     21.059808     42.119615
     -3.668669     23.416551     23.416551     46.833101
     -3.658659     27.377796     27.377796     54.755591
     -3.648649     32.471755     32.471755     64.943511
     -3.638639     37.837337     37.837337     75.674674
     -3.628629     42.473238     42.473238     84.946475
     -3.618619     45.531875     45.531875     91.063750
     -3.608609     46.542696     46.542696     93.085392
     -3.598599     45.488616     45.488616     90.977231
     -3.588589     42.733784     42.733784     85.467567
     -3.578579     38.862849     38.862849     77.725699
     -3.568569     34.507038     34.507038     69.014076
     -3.558559     30.205844     30.205844     60.411688
     -3.548549     26.318931     26.318931     52.637863
     -3.538539     22.988576     22.988576     45.977153
     -3.528529     20.156324     20.156324     40.312648
     -3.518519     17.636034     17.636034     35.272067
     -3.508509     15.226295     15.226295     30.452590
     -3.498498     12.820714     12.820714     25.641428
     -3.488488     10.468936     10.468936     20.937872
     -3.478478      8.364108      8.364108     16.728216
     -3.468468      6.768621      6.768621     13.537242
     -3.458458      5.914567      5.914567     11.829135
     -3.448448      5.916690      5.916690     11.833381
     -3.438438      6.722054      6.722054     13.444107
     -3.428428      8.107716      8.107716     16.215431
     -3.418418      9.730568      9.730568     19.461136
     -3.408408     11.224743     11.224743     22.449487
     -3.398398     12.324455     12.324455     24.648910
     -3.388388     12.970123     12.970123     25.940246
     -3.378378     13.350614     13.350614     26.701228
     -3.368368     13.856310     13.856310     27.712619
     -3.358358     14.957854     14.957854     29.915707
     -3.348348     17.058356     17.058356     34.116712
     -3.338338     20.370644     20.370644     40.741288
     -3.328328     24.847126     24.847126     49.694251
     -3.318318     30.161597     30.161597     60.323194
     -3.308308     35.733764     35.733764     71.467528
     -3.298298     40.799079     40.799079     81.598159
     -3.288288     44.535230     44.535230     89.070460
     -3.278278     46.239428     46.239428     92.478855
     -3.268268     45.512437     45.512437     91.024875
     -3.258258     42.378417     42.378417     84.756834
     -3.248248     37.284017     37.284017     74.568035
     -3.238238     30.972957     30.972957     61.945913
     -3.228228     24.289046     24.289046     48.578091
     -3.218218     17.985542     17.985542     35.971085
     -3.208208     12.602601     12.602601     25.205202
     -3.198198      8.435739      8.435739     16.871477
     -3.188188      5.581632      5.581632     11.163264
     -3.178178      4.026610      4.026610      8.053219
     -3.168168      3.737633      3.737633      7.475265
     -3.158158      4.720264      4.720264      9.440528
     -3.148148      7.020411      7.020411     14.040822
     -3.138138     10.666066     10.666066     21.332132
     -3.128128     15.569654     15.569654     31.139308
     -3.118118     21.433481     21.433481     42.866963
     -3.108108     27.709144     27.709144     55.418289
     -3.098098     33.648045     33.648045     67.296090
     -3.088088     38.445385     38.445385     76.890770
     -3.078078     41.437146     41.437146     82.874291
     -3.068068     42.278652     42.278652     84.557305
     -3.058058     41.031746     41.031746     82.063491
     -3.048048     38.120658     38.120658     76.241316
     -3.038038     34.172917     34.172917     68.345834
     -3.028028     29.814833     29.814833     59.629665
     -3.018018     25.512128     25.512128     51.024255
     -3.008008     21.520279     21.520279     43.040559
     -2.997998     17.948957     17.948957     35.897915
     -2.987988     14.885984     14.885984     29.771968
     -2.977978     12.502847     12.502847     25.005694
     -2.967968     11.084898     11.084898     22.169797
     -2.957958     10.974661     10.974661     21.949321
     -2.947948     12.456256     12.456256     24.912512
     -2.937938     15.626603     15.626603     31.253206
     -2.927928     20.298196     20.298196     40.596393
     -2.917918     25.969448     25.969448     51.938896
     -2.907908     31.885028     31.885028     63.770055
     -2.897898     37.185815     37.185815     74.371630
     -2.887888     41.115001     41.115001     82.230001
     -2.877878     43.215020     43.215020     86.430040
     -2.867868     43.439404     43.439404     86.878808
     -2.857858     42.128381     42.128381     84.256762
     -2.847848     39.852332     39.852332     79.704664
     -2.837838     37.187887     37.187887     74.375775
     -2.827828     34.524851     34.524851     69.049701
     -2.817818     31.987289     31.987289     63.974579
     -2.807808     29.493863     29.493863     58.987726
     -2.797798     26.911071     26.911071     53.822143
     -2.787788     24.207796     24.207796     48.415592
     -2.777778     21.525445     21.525445     43.050890
     -2.767768     19.131315     19.131315     38.262630
     -2.757758     17.292137     17.292137     34.584273
     -2.747748     16.149932     16.149932     32.299864
     -2.737738     15.676762     15.676762     31.353524
     -2.727728     15.732166     15.732166     31.464332
     -2.717718     16.179367     16.179367     32.358733
     -2.707708     16.976959     16.976959     33.953918
     -2.697698     18.179276     18.179276     36.358552
     -2.687688     19.842765     19.842765     39.685530
     -2.677678     21.905591     21.905591     43.811183
     -2.667668     24.133616     24.133616     48.267232
     -2.657658     26.185662     26.185662     52.371324
     -2.647648     27.768852     27.768852     55.537704
     -2.637638     28.788071     28.788071     57.576142
     -2.627628     29.391724     29.391724     58.783448
     -2.617618     29.882547     29.882547     59.765093
     -2.607608     30.549632     30.549632     61.099264
     -2.597598     31.522816     31.522816     63.045631
     -2.587588     32.723616     32.723616     65.447232
     -2.577578     33.914930     33.914930     67.829860
     -2.567568     34.793794     34.793794     69.587587
     -2.557558     35.068672     35.068672     70.137344
     -2.547548     34.505236     34.505236     69.010472
     -2.537538     32.965351     32.965351     65.930703
     -2.527528     30.463981     30.463981     60.927962
     -2.517518     27.231397     27.231397     54.462794
     -2.507508     23.732751     23.732751     47.465503
     -2.497497     20.600320     20.600320     41.200640
     -2.487487     18.477485     18.477485     36.954970
     -2.477477     17.826899     17.826899     35.653797
     -2.467467     18.782555     18.782555     37.565109
     -2.457457     21.111677     21.111677     42.223354
     -2.447447     24.306645     24.306645     48.613289
     -2.437437     27.771873     27.771873     55.543747
     -2.427427     31.028705     31.028705     62.057409
     -2.417417     33.850551     33.850551     67.701103
     -2.407407     36.268178     36.268178     72.536357
     -2.397397     38.442895     38.442895     76.885789
     -2.387387     40.469784     40.469784     80.939567
     -2.377377     42.213075     42.213075     84.426150
     -2.367367     43.268120     43.268120     86.536240
     -2.357357     43.086736     43.086736     86.173472
     -2.347347     41.219104     41.219104     82.438208
     -2.337337     37.559136     37.559136     75.118272
     -2.327327     32.471417     32.471417     64.942834
     -2.317317     26.735631     26.735631     53.471263
     -2.307307     21.335888     21.335888     42.671776
     -2.297297     17.192430     17.192430     34.384859
     -2.287287     14.943828     14.943828     29.887655
     -2.277277     14.843397     14.843397     29.686794
     -2.267267     16.771707     16.771707     33.543415
     -2.257257     20.325269     20.325269     40.650538
     -2.247247     24.932551     24.932551     49.865101
     -2.237237     29.961466     29.961466     59.922932
     -2.227227     34.800504     34.800504     69.601008
     -2.217217     38.910037     38.910037     77.820074
     -2.207207     41.851066     41.851066     83.702131
     -2.197197     43.306270     43.306270     86.612539
     -2.187187     43.108887     43.108887     86.217773
     -2.177177     41.283078     41.283078     82.566155
     -2.167167     38.077187     38.077187     76.154373
     -2.157157     33.953359     33.953359     67.906719
     -2.147147     29.503247     29.503247     59.006494
     -2.137137     25.296484     25.296484     50.592967
     -2.127127     21.716756     21.716756     43.433513
     -2.117117     18.863546     18.863546     37.727093
     -2.107107     16.572090     16.572090     33.144181
     -2.097097     14.541297     14.541297     29.082594
     -2.087087     12.500349     12.500349     25.000697
     -2.077077     10.329087     10.329087     20.658174
     -2.067067      8.082610      8.082610     16.165219
     -2.057057      5.928971      5.928971     11.857942
     -2.047047      4.051146      4.051146      8.102292
     -2.037037      2.568851      2.568851      5.137703
     -2.027027      1.509555      1.509555      3.019109
     -2.017017      0.825100      0.825100      1.650201
     -2.007007      0.431406      0.431406      0.862812
     -1.996997      0.248783      0.248783      0.497567
     -1.986987      0.231628      0.231628      0.463257
     -1.976977      0.387102      0.387102      0.774205
     -1.966967      0.786048      0.786048      1.572096
     -1.956957      1.565278      1.565278      3.130555
     -1.946947      2.913155      2.913155      5.826310
     -1.936937      5.027205      5.027205     10.054410
     -1.926927      8.039862      8.039862     16.079724
     -1.916917     11.927481     11.927481     23.854962
     -1.906907     16.439612     16.439612     32.879224
     -1.896897     21.093636     21.093636     42.187271
     -1.886887     25.260652     25.260652     50.521305
     -1.876877     28.325987     28.325987     56.651974
     -1.866867     29.865790     29.865790     59.731580
     -1.856857     29.768416     29.768416     59.536831
     -1.846847     28.254757     28.254757     56.509514
     -1.836837     25.797366     25.797366     51.594731
     -1.826827     22.974986     22.974986     45.949972
     -1.816817     20.311884     20.311884     40.623768
     -1.806807     18.146276     18.146276     36.292552
     -1.796797     16.561798     16.561798     33.123596
     -1.786787     15.402408     15.402408     30.804817
     -1.776777     14.367840     14.367840     28.735681
     -1.766767     13.154859     13.154859     26.309718
     -1.756757     11.585924     11.585924     23.171848
     -1.746747      9.671321      9.671321     19.342643
     -1.736737      7.585801      7.585801     15.171602
     -1.726727      5.585196      5.585196     11.170392
     -1.716717      3.913968      3.913968      7.827935
     -1.706707      2.747253      2.747253      5.494506
     -1.696697      2.180426      2.180426      4.360853
     -1.686687      2.248049      2.248049      4.496097
     -1.676677      2.941062      2.941062      5.882123
     -1.666667      4.200780      4.200780      8.401560
     -1.656657      5.892026      5.892026     11.784052
     -1.646647      7.780442      7.780442     15.560884
     -1.636637      9.546177      9.546177     19.092355
     -1.626627     10.851211     10.851211     21.702421
