# EIG2DOS: Utility for SIESTA to obtain the electronic density of states
#  E. Artacho, Apr 1999, A. Garcia, Apr 2012
#  Nick R. Papior, Feb 2017
# ------------------------------------------
# Eigenvalues calculated from a non-polarized calculation
# Eigenvalues read from siesta.EIG
# Kpoint weights read from siesta.KP
# Using smearing parameter:   0.0500
# Using 1000 points in the energy range
# Selected bands: 1 to: 2981
# Emin, Emax in file for selected band(s):    -27.0599806    218.3208530
# Nbands, Nspin, Nk   =   2981     1     1
# E_F                 =    -4.2894 eV --> (shifted to ZERO)
# Broadening          =     0.0500 eV
#
#        E            N(up)  (=)   N(down)         Ntot
     -5.000000     41.037207     41.037207     82.074415
     -4.989990     42.435549     42.435549     84.871098
     -4.979980     43.380708     43.380708     86.761415
     -4.969970     43.663952     43.663952     87.327904
     -4.959960     43.101972     43.101972     86.203944
     -4.949950     41.625913     41.625913     83.251826
     -4.939940     39.336751     39.336751     78.673503
     -4.929930     36.520724     36.520724     73.041448
     -4.919920     33.634957     33.634957     67.269913
     -4.909910     31.270793     31.270793     62.541585
     -4.899900     30.085624     30.085624     60.171249
     -4.889890     30.681434     30.681434     61.362869
     -4.879880     33.421856     33.421856     66.843712
     -4.869870     38.226434     38.226434     76.452867
     -4.859860     44.436270     44.436270     88.872540
     -4.849850     50.860755     50.860755    101.721509
     -4.839840     56.054671     56.054671    112.109342
     -4.829830     58.755092     58.755092    117.510183
     -4.819820     58.299744     58.299744    116.599488
     -4.809810     54.832714     54.832714    109.665427
     -4.799800     49.203244     49.203244     98.406487
     -4.789790     42.620543     42.620543     85.241086
     -4.779780     36.241306     36.241306     72.482613
     -4.769770     30.869932     30.869932     61.739865
     -4.759760     26.858133     26.858133     53.716265
     -4.749750     24.176005     24.176005     48.352010
     -4.739740     22.562516     22.562516     45.125032
     -4.729730     21.668626     21.668626     43.337252
     -4.719720     21.150268     21.150268     42.300536
     -4.709710     20.710621     20.710621     41.421242
     -4.699700     20.112979     20.112979     40.225959
     -4.689690     19.189689     19.189689     38.379378
     -4.679680     17.865706     17.865706     35.731412
     -4.669670     16.199978     16.199978     32.399955
     -4.659660     14.428311     14.428311     28.856622
     -4.649650     12.977925     12.977925     25.955851
     -4.639640     12.425402     12.425402     24.850804
     -4.629630     13.385930     13.385930     26.771860
     -4.619620     16.344915     16.344915     32.689829
     -4.609610     21.467435     21.467435     42.934869
     -4.599600     28.444231     28.444231     56.888462
     -4.589590     36.446783     36.446783     72.893565
     -4.579580     44.250878     44.250878     88.501756
     -4.569570     50.533856     50.533856    101.067712
     -4.559560     54.267699     54.267699    108.535397
     -4.549550     55.061898     55.061898    110.123795
     -4.539540     53.305954     53.305954    106.611909
     -4.529530     50.037500     50.037500    100.075000
     -4.519520     46.583211     46.583211     93.166422
     -4.509510     44.119995     44.119995     88.239989
     -4.499499     43.329858     43.329858     86.659716
     -4.489489     44.264863     44.264863     88.529727
     -4.479479     46.435796     46.435796     92.871591
     -4.469469     49.046236     49.046236     98.092473
     -4.459459     51.255466     51.255466    102.510931
     -4.449449     52.377314     52.377314    104.754629
     -4.439439     51.982082     51.982082    103.964164
     -4.429429     49.923997     49.923997     99.847995
     -4.419419     46.336411     46.336411     92.672822
     -4.409409     41.617203     41.617203     83.234405
     -4.399399     36.391459     36.391459     72.782919
     -4.389389     31.420850     31.420850     62.841700
     -4.379379     27.448050     27.448050     54.896099
     -4.369369     25.009503     25.009503     50.019006
     -4.359359     24.287579     24.287579     48.575157
     -4.349349     25.072612     25.072612     50.145224
     -4.339339     26.860780     26.860780     53.721559
     -4.329329     29.049835     29.049835     58.099669
     -4.319319     31.149350     31.149350     62.298701
     -4.309309     32.920732     32.920732     65.841464
     -4.299299     34.401709     34.401709     68.803418
     -4.289289     35.823111     35.823111     71.646221
     -4.279279     37.462469     37.462469     74.924938
     -4.269269     39.488114     39.488114     78.976227
     -4.259259     41.839930     41.839930     83.679860
     -4.249249     44.184634     44.184634     88.369269
     -4.239239     45.974510     45.974510     91.949020
     -4.229229     46.613611     46.613611     93.227222
     -4.219219     45.686780     45.686780     91.373559
     -4.209209     43.156462     43.156462     86.312924
     -4.199199     39.423028     39.423028     78.846057
     -4.189189     35.200943     35.200943     70.401886
     -4.179179     31.261055     31.261055     62.522111
     -4.169169     28.165383     28.165383     56.330766
     -4.159159     26.122715     26.122715     52.245431
     -4.149149     25.021319     25.021319     50.042638
     -4.139139     24.598417     24.598417     49.196835
     -4.129129     24.642206     24.642206     49.284413
     -4.119119     25.117744     25.117744     50.235488
     -4.109109     26.154045     26.154045     52.308090
     -4.099099     27.900287     27.900287     55.800574
     -4.089089     30.327063     30.327063     60.654126
     -4.079079     33.087214     33.087214     66.174428
     -4.069069     35.535185     35.535185     71.070369
     -4.059059     36.928045     36.928045     73.856090
     -4.049049     36.727129     36.727129     73.454257
     -4.039039     34.849016     34.849016     69.698032
     -4.029029     31.730817     31.730817     63.461634
     -4.019019     28.175148     28.175148     56.350296
     -4.009009     25.062082     25.062082     50.124165
     -3.998999     23.078883     23.078883     46.157765
     -3.988989     22.586101     22.586101     45.172202
     -3.978979     23.641307     23.641307     47.282615
     -3.968969     26.111225     26.111225     52.222449
     -3.958959     29.777270     29.777270     59.554540
     -3.948949     34.382635     34.382635     68.765269
     -3.938939     39.635404     39.635404     79.270808
     -3.928929     45.216656     45.216656     90.433312
     -3.918919     50.822986     50.822986    101.645973
     -3.908909     56.223762     56.223762    112.447524
     -3.898899     61.280940     61.280940    122.561879
     -3.888889     65.893482     65.893482    131.786964
     -3.878879     69.881376     69.881376    139.762753
     -3.868869     72.878493     72.878493    145.756987
     -3.858859     74.319522     74.319522    148.639043
     -3.848849     73.567874     73.567874    147.135748
     -3.838839     70.155749     70.155749    140.311497
     -3.828829     64.036163     64.036163    128.072326
     -3.818819     55.723152     55.723152    111.446304
     -3.808809     46.238872     46.238872     92.477745
     -3.798799     36.874097     36.874097     73.748193
     -3.788789     28.852614     28.852614     57.705228
     -3.778779     23.025397     23.025397     46.050793
     -3.768769     19.695044     19.695044     39.390087
     -3.758759     18.608937     18.608937     37.217875
     -3.748749     19.098340     19.098340     38.196681
     -3.738739     20.305102     20.305102     40.610205
     -3.728729     21.429744     21.429744     42.859489
     -3.718719     21.942782     21.942782     43.885564
     -3.708709     21.714300     21.714300     43.428600
     -3.698699     21.031966     21.031966     42.063932
     -3.688689     20.497926     20.497926     40.995853
     -3.678679     20.823207     20.823207     41.646415
     -3.668669     22.571649     22.571649     45.143298
     -3.658659     25.933001     25.933001     51.866001
     -3.648649     30.609636     30.609636     61.219273
     -3.638639     35.870013     35.870013     71.740026
     -3.628629     40.758048     40.758048     81.516095
     -3.618619     44.378502     44.378502     88.757005
     -3.608609     46.143845     46.143845     92.287690
     -3.598599     45.892180     45.892180     91.784360
     -3.588589     43.854832     43.854832     87.709665
     -3.578579     40.520860     40.520860     81.041720
     -3.568569     36.472742     36.472742     72.945483
     -3.558559     32.247741     32.247741     64.495482
     -3.548549     28.243734     28.243734     56.487467
     -3.538539     24.669498     24.669498     49.338996
     -3.528529     21.542442     21.542442     43.084883
     -3.518519     18.740007     18.740007     37.480014
     -3.508509     16.096219     16.096219     32.192439
     -3.498498     13.508918     13.508918     27.017835
     -3.488488     11.010589     11.010589     22.021177
     -3.478478      8.771667      8.771667     17.543334
     -3.468468      7.039545      7.039545     14.079090
     -3.458458      6.044816      6.044816     12.089633
     -3.448448      5.912655      5.912655     11.825309
     -3.438438      6.606434      6.606434     13.212868
     -3.428428      7.917553      7.917553     15.835106
     -3.418418      9.507435      9.507435     19.014870
     -3.408408     10.999136     10.999136     21.998273
     -3.398398     12.099202     12.099202     24.198404
     -3.388388     12.709598     12.709598     25.419197
     -3.378378     12.981295     12.981295     25.962590
     -3.368368     13.279037     13.279037     26.558073
     -3.358358     14.065808     14.065808     28.131615
     -3.348348     15.751703     15.751703     31.503405
     -3.338338     18.561538     18.561538     37.123076
     -3.328328     22.455249     22.455249     44.910498
     -3.318318     27.105602     27.105602     54.211204
     -3.308308     31.924803     31.924803     63.849606
     -3.298298     36.141000     36.141000     72.282000
     -3.288288     38.936083     38.936083     77.872166
     -3.278278     39.640333     39.640333     79.280666
     -3.268268     37.936014     37.936014     75.872028
     -3.258258     33.984992     33.984992     67.969983
     -3.248248     28.406449     28.406449     56.812897
     -3.238238     22.096878     22.096878     44.193757
     -3.228228     15.965812     15.965812     31.931623
     -3.218218     10.701075     10.701075     21.402149
     -3.208208      6.651566      6.651566     13.303132
     -3.198198      3.847055      3.847055      7.694110
     -3.188188      2.111539      2.111539      4.223078
     -3.178178      1.202987      1.202987      2.405973
     -3.168168      0.927693      0.927693      1.855385
     -3.158158      1.208235      1.208235      2.416471
     -3.148148      2.106238      2.106238      4.212475
     -3.138138      3.806018      3.806018      7.612036
     -3.128128      6.559724      6.559724     13.119449
     -3.118118     10.592216     10.592216     21.184431
     -3.108108     15.974839     15.974839     31.949679
     -3.098098     22.500562     22.500562     45.001124
     -3.088088     29.615380     29.615380     59.230761
     -3.078078     36.462087     36.462087     72.924174
     -3.068068     42.057979     42.057979     84.115957
     -3.058058     45.564846     45.564846     91.129692
     -3.048048     46.549854     46.549854     93.099707
     -3.038038     45.121262     45.121262     90.242524
     -3.028028     41.873270     41.873270     83.746539
     -3.018018     37.666368     37.666368     75.332735
     -3.008008     33.348207     33.348207     66.696413
     -2.997998     29.537472     29.537472     59.074945
     -2.987988     26.545237     26.545237     53.090473
     -2.977978     24.432613     24.432613     48.865226
     -2.967968     23.146018     23.146018     46.292036
     -2.957958     22.652757     22.652757     45.305515
     -2.947948     23.013353     23.013353     46.026706
     -2.937938     24.358639     24.358639     48.717278
     -2.927928     26.781075     26.781075     53.562150
     -2.917918     30.192761     30.192761     60.385522
     -2.907908     34.229540     34.229540     68.459080
     -2.897898     38.270036     38.270036     76.540072
     -2.887888     41.585937     41.585937     83.171874
     -2.877878     43.569267     43.569267     87.138533
     -2.867868     43.934690     43.934690     87.869380
     -2.857858     42.800404     42.800404     85.600807
     -2.847848     40.608891     40.608891     81.217782
     -2.837838     37.927255     37.927255     75.854511
     -2.827828     35.223749     35.223749     70.447499
     -2.817818     32.723611     32.723611     65.447221
     -2.807808     30.402010     30.402010     60.804020
     -2.797798     28.100007     28.100007     56.200013
     -2.787788     25.688659     25.688659     51.377318
     -2.777778     23.187834     23.187834     46.375668
     -2.767768     20.778451     20.778451     41.556903
     -2.757758     18.711280     18.711280     37.422559
     -2.747748     17.175639     17.175639     34.351278
     -2.737738     16.212676     16.212676     32.425352
     -2.727728     15.727176     15.727176     31.454352
     -2.717718     15.587077     15.587077     31.174155
     -2.707708     15.741102     15.741102     31.482205
     -2.697698     16.270727     16.270727     32.541453
     -2.687688     17.334517     17.334517     34.669033
     -2.677678     19.035552     19.035552     38.071104
     -2.667668     21.298664     21.298664     42.597327
     -2.657658     23.844419     23.844419     47.688837
     -2.647648     26.287500     26.287500     52.574999
     -2.637638     28.305627     28.305627     56.611254
     -2.627628     29.776713     29.776713     59.553426
     -2.617618     30.801773     30.801773     61.603545
     -2.607608     31.606732     31.606732     63.213464
     -2.597598     32.393452     32.393452     64.786904
     -2.587588     33.233191     33.233191     66.466382
     -2.577578     34.051399     34.051399     68.102798
     -2.567568     34.682015     34.682015     69.364030
     -2.557558     34.931651     34.931651     69.863302
     -2.547548     34.614919     34.614919     69.229838
     -2.537538     33.572823     33.572823     67.145647
     -2.527528     31.712717     31.712717     63.425433
     -2.517518     29.083734     29.083734     58.167469
     -2.507508     25.950267     25.950267     51.900534
     -2.497497     22.798422     22.798422     45.596844
     -2.487487     20.236130     20.236130     40.472260
     -2.477477     18.810306     18.810306     37.620611
     -2.467467     18.819505     18.819505     37.639011
     -2.457457     20.211468     20.211468     40.422935
     -2.447447     22.616869     22.616869     45.233737
     -2.437437     25.506422     25.506422     51.012844
     -2.427427     28.400670     28.400670     56.801339
     -2.417417     31.036751     31.036751     62.073502
     -2.407407     33.415327     33.415327     66.830654
     -2.397397     35.706131     35.706131     71.412262
     -2.387387     38.058311     38.058311     76.116623
     -2.377377     40.410580     40.410580     80.821159
     -2.367367     42.402212     42.402212     84.804423
     -2.357357     43.443463     43.443463     86.886926
     -2.347347     42.929331     42.929331     85.858662
     -2.337337     40.507686     40.507686     81.015372
     -2.327327     36.279395     36.279395     72.558791
     -2.317317     30.835668     30.835668     61.671335
     -2.307307     25.114520     25.114520     50.229039
     -2.297297     20.141340     20.141340     40.282679
     -2.287287     16.761594     16.761594     33.523189
     -2.277277     15.458743     15.458743     30.917486
     -2.267267     16.297393     16.297393     32.594786
     -2.257257     18.977898     18.977898     37.955796
     -2.247247     22.958911     22.958911     45.917822
     -2.237237     27.599550     27.599550     55.199101
     -2.227227     32.280968     32.280968     64.561936
     -2.217217     36.480780     36.480780     72.961561
     -2.207207     39.793640     39.793640     79.587280
     -2.197197     41.916112     41.916112     83.832224
     -2.187187     42.632642     42.632642     85.265283
     -2.177177     41.835503     41.835503     83.671006
     -2.167167     39.580309     39.580309     79.160617
     -2.157157     36.137668     36.137668     72.275337
     -2.147147     31.983128     31.983128     63.966256
     -2.137137     27.693387     27.693387     55.386775
     -2.127127     23.776083     23.776083     47.552166
     -2.117117     20.512439     20.512439     41.024877
     -2.107107     17.896166     17.896166     35.792331
     -2.097097     15.700663     15.700663     31.401327
     -2.087087     13.633543     13.633543     27.267086
     -2.077077     11.492124     11.492124     22.984248
     -2.067067      9.243491      9.243491     18.486981
     -2.057057      7.005473      7.005473     14.010947
     -2.047047      4.961365      4.961365      9.922731
     -2.037037      3.266755      3.266755      6.533511
     -2.027027      1.994118      1.994118      3.988235
     -2.017017      1.127912      1.127912      2.255824
     -2.007007      0.594880      0.594880      1.189761
     -1.996997      0.304690      0.304690      0.609381
     -1.986987      0.182803      0.182803      0.365606
     -1.976977      0.189773      0.189773      0.379546
     -1.966967      0.329626      0.329626      0.659252
     -1.956957      0.651207      0.651207      1.302414
     -1.946947      1.242619      1.242619      2.485239
     -1.936937      2.214797      2.214797      4.429595
     -1.926927      3.670368      3.670368      7.340735
     -1.916917      5.660291      5.660291     11.320583
     -1.906907      8.140770      8.140770     16.281541
     -1.896897     10.949808     10.949808     21.899617
     -1.886887     13.819794     13.819794     27.639588
     -1.876877     16.428608     16.428608     32.857216
     -1.866867     18.474632     18.474632     36.949263
     -1.856857     19.751123     19.751123     39.502247
     -1.846847     20.197086     20.197086     40.394172
     -1.836837     19.910251     19.910251     39.820503
     -1.826827     19.116405     19.116405     38.232809
     -1.816817     18.097884     18.097884     36.195768
     -1.806807     17.097688     17.097688     34.195376
     -1.796797     16.233021     16.233021     32.466041
     -1.786787     15.460112     15.460112     30.920225
     -1.776777     14.616000     14.616000     29.232000
     -1.766767     13.524334     13.524334     27.048669
     -1.756757     12.114207     12.114207     24.228415
     -1.746747     10.490780     10.490780     20.981560
     -1.736737      8.922372      8.922372     17.844744
     -1.726727      7.752607      7.752607     15.505215
     -1.716717      7.280123      7.280123     14.560246
     -1.706707      7.656168      7.656168     15.312336
     -1.696697      8.835857      8.835857     17.671714
     -1.686687     10.595089     10.595089     21.190177
     -1.676677     12.601805     12.601805     25.203610
     -1.666667     14.511564     14.511564     29.023128
     -1.656657     16.048560     16.048560     32.097119
     -1.646647     17.041844     17.041844     34.083688
     -1.636637     17.413239     17.413239     34.826479
     -1.626627     17.143684     17.143684     34.287368
