# EIG2DOS: Utility for SIESTA to obtain the electronic density of states
#  E. Artacho, Apr 1999, A. Garcia, Apr 2012
#  Nick R. Papior, Feb 2017
# ------------------------------------------
# Eigenvalues calculated from a non-polarized calculation
# Eigenvalues read from siesta.EIG
# Kpoint weights read from siesta.KP
# Using smearing parameter:   0.0500
# Using 1000 points in the energy range
# Selected bands: 1 to: 2981
# Emin, Emax in file for selected band(s):    -27.3224444    218.3881090
# Nbands, Nspin, Nk   =   2981     1     1
# E_F                 =    -4.2162 eV --> (shifted to ZERO)
# Broadening          =     0.0500 eV
#
#        E            N(up)  (=)   N(down)         Ntot
     -5.000000     36.707722     36.707722     73.415445
     -4.989990     40.646904     40.646904     81.293809
     -4.979980     43.564547     43.564547     87.129093
     -4.969970     44.982728     44.982728     89.965456
     -4.959960     44.684852     44.684852     89.369705
     -4.949950     42.786512     42.786512     85.573025
     -4.939940     39.711676     39.711676     79.423352
     -4.929930     36.103956     36.103956     72.207911
     -4.919920     32.718345     32.718345     65.436690
     -4.909910     30.318870     30.318870     60.637740
     -4.899900     29.573887     29.573887     59.147773
     -4.889890     30.926863     30.926863     61.853725
     -4.879880     34.445711     34.445711     68.891423
     -4.869870     39.703552     39.703552     79.407104
     -4.859860     45.775741     45.775741     91.551481
     -4.849850     51.413556     51.413556    102.827111
     -4.839840     55.373834     55.373834    110.747669
     -4.829830     56.791836     56.791836    113.583673
     -4.819820     55.443416     55.443416    110.886832
     -4.809810     51.784950     51.784950    103.569900
     -4.799800     46.763142     46.763142     93.526285
     -4.789790     41.489499     41.489499     82.978997
     -4.779780     36.917679     36.917679     73.835358
     -4.769770     33.631422     33.631422     67.262844
     -4.759760     31.779749     31.779749     63.559498
     -4.749750     31.134546     31.134546     62.269093
     -4.739740     31.220591     31.220591     62.441182
     -4.729730     31.471797     31.471797     62.943594
     -4.719720     31.377509     31.377509     62.755017
     -4.709710     30.589323     30.589323     61.178645
     -4.699700     28.969984     28.969984     57.939968
     -4.689690     26.587861     26.587861     53.175723
     -4.679680     23.683157     23.683157     47.366313
     -4.669670     20.636234     20.636234     41.272468
     -4.659660     17.947733     17.947733     35.895466
     -4.649650     16.210024     16.210024     32.420048
     -4.639640     16.034844     16.034844     32.069689
     -4.629630     17.916807     17.916807     35.833614
     -4.619620     22.051848     22.051848     44.103697
     -4.609610     28.174046     28.174046     56.348092
     -4.599600     35.498353     35.498353     70.996706
     -4.589590     42.838510     42.838510     85.677020
     -4.579580     48.903239     48.903239     97.806478
     -4.569570     52.683758     52.683758    105.367515
     -4.559560     53.781334     53.781334    107.562668
     -4.549550     52.530732     52.530732    105.061465
     -4.539540     49.859698     49.859698     99.719396
     -4.529530     46.942193     46.942193     93.884386
     -4.519520     44.789625     44.789625     89.579250
     -4.509510     43.938293     43.938293     87.876586
     -4.499499     44.335782     44.335782     88.671564
     -4.489489     45.440313     45.440313     90.880627
     -4.479479     46.467361     46.467361     92.934721
     -4.469469     46.675768     46.675768     93.351535
     -4.459459     45.589935     45.589935     91.179870
     -4.449449     43.096862     43.096862     86.193725
     -4.439439     39.415848     39.415848     78.831696
     -4.429429     34.987919     34.987919     69.975837
     -4.419419     30.350048     30.350048     60.700096
     -4.409409     26.040636     26.040636     52.081272
     -4.399399     22.543454     22.543454     45.086907
     -4.389389     20.246207     20.246207     40.492415
     -4.379379     19.389234     19.389234     38.778469
     -4.369369     20.007541     20.007541     40.015083
     -4.359359     21.899903     21.899903     43.799807
     -4.349349     24.663202     24.663202     49.326404
     -4.339339     27.800620     27.800620     55.601239
     -4.329329     30.868375     30.868375     61.736750
     -4.319319     33.598870     33.598870     67.197740
     -4.309309     35.946992     35.946992     71.893985
     -4.299299     38.043298     38.043298     76.086597
     -4.289289     40.078128     40.078128     80.156256
     -4.279279     42.163796     42.163796     84.327593
     -4.269269     44.224947     44.224947     88.449895
     -4.259259     45.959066     45.959066     91.918133
     -4.249249     46.894318     46.894318     93.788636
     -4.239239     46.544311     46.544311     93.088623
     -4.229229     44.616044     44.616044     89.232087
     -4.219219     41.185288     41.185288     82.370576
     -4.209209     36.746079     36.746079     73.492159
     -4.199199     32.088507     32.088507     64.177015
     -4.189189     28.044339     28.044339     56.088678
     -4.179179     25.212933     25.212933     50.425866
     -4.169169     23.793529     23.793529     47.587059
     -4.159159     23.595316     23.595316     47.190632
     -4.149149     24.206971     24.206971     48.413942
     -4.139139     25.232018     25.232018     50.464036
     -4.129129     26.470227     26.470227     52.940454
     -4.119119     27.955773     27.955773     55.911545
     -4.109109     29.834770     29.834770     59.669540
     -4.099099     32.148900     32.148900     64.297801
     -4.089089     34.650480     34.650480     69.300959
     -4.079079     36.772002     36.772002     73.544004
     -4.069069     37.798137     37.798137     75.596273
     -4.059059     37.172368     37.172368     74.344737
     -4.049049     34.782168     34.782168     69.564337
     -4.039039     31.067135     31.067135     62.134271
     -4.029029     26.889947     26.889947     53.779895
     -4.019019     23.240329     23.240329     46.480657
     -4.009009     20.924090     20.924090     41.848179
     -3.998999     20.376140     20.376140     40.752281
     -3.988989     21.648226     21.648226     43.296451
     -3.978979     24.523869     24.523869     49.047739
     -3.968969     28.665042     28.665042     57.330084
     -3.958959     33.714877     33.714877     67.429755
     -3.948949     39.338828     39.338828     78.677655
     -3.938939     45.233626     45.233626     90.467253
     -3.928929     51.137678     51.137678    102.275356
     -3.918919     56.845543     56.845543    113.691085
     -3.908909     62.199693     62.199693    124.399386
     -3.898899     67.037058     67.037058    134.074117
     -3.888889     71.105454     71.105454    142.210909
     -3.878879     74.003815     74.003815    148.007630
     -3.868869     75.205103     75.205103    150.410207
     -3.858859     74.183088     74.183088    148.366175
     -3.848849     70.606393     70.606393    141.212786
     -3.838839     64.520661     64.520661    129.041323
     -3.828829     56.435990     56.435990    112.871979
     -3.818819     47.272436     47.272436     94.544873
     -3.808809     38.172294     38.172294     76.344587
     -3.798799     30.238099     30.238099     60.476198
     -3.788789     24.279901     24.279901     48.559802
     -3.778779     20.647467     20.647467     41.294934
     -3.768769     19.190558     19.190558     38.381117
     -3.758759     19.348909     19.348909     38.697818
     -3.748749     20.338445     20.338445     40.676890
     -3.738739     21.379890     21.379890     42.759780
     -3.728729     21.911135     21.911135     43.822269
     -3.718719     21.732036     21.732036     43.464072
     -3.708709     21.046005     21.046005     42.092011
     -3.698699     20.384864     20.384864     40.769727
     -3.688689     20.431061     20.431061     40.862122
     -3.678679     21.781582     21.781582     43.563164
     -3.668669     24.722779     24.722779     49.445557
     -3.658659     29.092679     29.092679     58.185358
     -3.648649     34.286198     34.286198     68.572395
     -3.638639     39.409553     39.409553     78.819106
     -3.628629     43.530822     43.530822     87.061644
     -3.618619     45.933504     45.933504     91.867007
     -3.608609     46.282988     46.282988     92.565976
     -3.598599     44.660956     44.660956     89.321912
     -3.588589     41.482114     41.482114     82.964227
     -3.578579     37.346037     37.346037     74.692074
     -3.568569     32.879088     32.879088     65.758176
     -3.558559     28.601085     28.601085     57.202170
     -3.548549     24.834088     24.834088     49.668176
     -3.538539     21.667019     21.667019     43.334039
     -3.528529     18.988226     18.988226     37.976451
     -3.518519     16.582213     16.582213     33.164426
     -3.508509     14.258143     14.258143     28.516286
     -3.498498     11.957265     11.957265     23.914531
     -3.488488      9.794093      9.794093     19.588186
     -3.478478      8.019612      8.019612     16.039223
     -3.468468      6.931215      6.931215     13.862429
     -3.458458      6.770761      6.770761     13.541522
     -3.448448      7.645128      7.645128     15.290256
     -3.438438      9.486324      9.486324     18.972648
     -3.428428     12.055228     12.055228     24.110457
     -3.418418     14.987432     14.987432     29.974864
     -3.408408     17.874886     17.874886     35.749773
     -3.398398     20.368071     20.368071     40.736143
     -3.388388     22.272953     22.272953     44.545907
     -3.378378     23.612457     23.612457     47.224914
     -3.368368     24.627955     24.627955     49.255910
     -3.358358     25.711126     25.711126     51.422251
     -3.348348     27.276018     27.276018     54.552036
     -3.338338     29.601001     29.601001     59.202002
     -3.328328     32.686520     32.686520     65.373039
     -3.318318     36.182096     36.182096     72.364191
     -3.308308     39.427406     39.427406     78.854812
     -3.298298     41.621048     41.621048     83.242097
     -3.288288     42.078717     42.078717     84.157433
     -3.278278     40.489067     40.489067     80.978133
     -3.268268     37.053606     37.053606     74.107213
     -3.258258     32.433066     32.433066     64.866133
     -3.248248     27.510254     27.510254     55.020509
     -3.238238     23.072806     23.072806     46.145612
     -3.228228     19.561102     19.561102     39.122203
     -3.218218     16.989410     16.989410     33.978820
     -3.208208     15.055318     15.055318     30.110636
     -3.198198     13.360641     13.360641     26.721282
     -3.188188     11.627419     11.627419     23.254838
     -3.178178      9.818767      9.818767     19.637533
     -3.168168      8.139398      8.139398     16.278795
     -3.158158      6.949915      6.949915     13.899830
     -3.148148      6.650942      6.650942     13.301884
     -3.138138      7.576956      7.576956     15.153912
     -3.128128      9.910151      9.910151     19.820302
     -3.118118     13.610212     13.610212     27.220424
     -3.108108     18.366614     18.366614     36.733228
     -3.098098     23.600906     23.600906     47.201812
     -3.088088     28.550626     28.550626     57.101251
     -3.078078     32.438027     32.438027     64.876053
     -3.068068     34.676820     34.676820     69.353640
     -3.058058     35.032621     35.032621     70.065242
     -3.048048     33.660834     33.660834     67.321668
     -3.038038     31.003752     31.003752     62.007505
     -3.028028     27.603703     27.603703     55.207406
     -3.018018     23.931661     23.931661     47.863322
     -3.008008     20.311953     20.311953     40.623905
     -2.997998     16.958017     16.958017     33.916033
     -2.987988     14.068163     14.068163     28.136325
     -2.977978     11.905247     11.905247     23.810495
     -2.967968     10.807311     10.807311     21.614622
     -2.957958     11.121751     11.121751     22.243501
     -2.947948     13.092165     13.092165     26.184329
     -2.937938     16.741280     16.741280     33.482559
     -2.927928     21.791543     21.791543     43.583087
     -2.917918     27.656827     27.656827     55.313655
     -2.907908     33.524945     33.524945     67.049889
     -2.897898     38.526023     38.526023     77.052046
     -2.887888     41.947068     41.947068     83.894137
     -2.877878     43.422287     43.422287     86.844573
     -2.867868     43.022706     43.022706     86.045411
     -2.857858     41.199839     41.199839     82.399677
     -2.847848     38.598676     38.598676     77.197351
     -2.837838     35.816926     35.816926     71.633853
     -2.827828     33.215772     33.215772     66.431545
     -2.817818     30.862864     30.862864     61.725729
     -2.807808     28.620693     28.620693     57.241385
     -2.797798     26.318979     26.318979     52.637957
     -2.787788     23.910402     23.910402     47.820803
     -2.777778     21.526933     21.526933     43.053867
     -2.767768     19.417727     19.417727     38.835454
     -2.757758     17.820257     17.820257     35.640514
     -2.747748     16.851792     16.851792     33.703584
     -2.737738     16.487436     16.487436     32.974872
     -2.727728     16.628155     16.628155     33.256310
     -2.717718     17.199042     17.199042     34.398085
     -2.707708     18.198074     18.198074     36.396147
     -2.697698     19.654339     19.654339     39.308677
     -2.687688     21.526513     21.526513     43.053026
     -2.677678     23.625073     23.625073     47.250145
     -2.667668     25.633564     25.633564     51.267127
     -2.657658     27.236238     27.236238     54.472477
     -2.647648     28.278787     28.278787     56.557573
     -2.637638     28.856139     28.856139     57.712278
     -2.627628     29.263818     29.263818     58.527636
     -2.617618     29.838123     29.838123     59.676245
     -2.607608     30.780883     30.780883     61.561765
     -2.597598     32.066372     32.066372     64.132744
     -2.587588     33.464986     33.464986     66.929971
     -2.577578     34.643085     34.643085     69.286170
     -2.567568     35.267749     35.267749     70.535497
     -2.557558     35.073189     35.073189     70.146378
     -2.547548     33.896662     33.896662     67.793324
     -2.537538     31.715898     31.715898     63.431795
     -2.527528     28.698879     28.698879     57.397759
     -2.517518     25.235913     25.235913     50.471827
     -2.507508     21.906168     21.906168     43.812336
     -2.497497     19.356334     19.356334     38.712668
     -2.487487     18.120474     18.120474     36.240948
     -2.477477     18.451044     18.451044     36.902089
     -2.467467     20.235443     20.235443     40.470885
     -2.457457     23.039036     23.039036     46.078073
     -2.447447     26.262606     26.262606     52.525211
     -2.437437     29.353387     29.353387     58.706774
     -2.427427     31.984307     31.984307     63.968613
     -2.417417     34.125923     34.125923     68.251845
     -2.407407     35.978006     35.978006     71.956011
     -2.397397     37.787670     37.787670     75.575340
     -2.387387     39.635301     39.635301     79.270602
     -2.377377     41.293784     41.293784     82.587568
     -2.367367     42.243814     42.243814     84.487627
     -2.357357     41.859329     41.859329     83.718658
     -2.347347     39.689542     39.689542     79.379084
     -2.337337     35.705223     35.705223     71.410446
     -2.327327     30.387240     30.387240     60.774481
     -2.317317     24.614920     24.614920     49.229840
     -2.307307     19.412737     19.412737     38.825474
     -2.297297     15.673475     15.673475     31.346951
     -2.287287     13.963893     13.963893     27.927787
     -2.277277     14.456458     14.456458     28.912915
     -2.267267     16.966931     16.966931     33.933862
     -2.257257     21.048005     21.048005     42.096010
     -2.247247     26.095282     26.095282     52.190565
     -2.237237     31.442588     31.442588     62.885177
     -2.227227     36.439575     36.439575     72.879150
     -2.217217     40.511517     40.511517     81.023033
     -2.207207     43.204697     43.204697     86.409394
     -2.197197     44.224407     44.224407     88.448815
     -2.187187     43.472254     43.472254     86.944508
     -2.177177     41.079181     41.079181     82.158362
     -2.167167     37.413383     37.413383     74.826766
     -2.157157     33.033437     33.033437     66.066873
     -2.147147     28.573120     28.573120     57.146240
     -2.137137     24.584166     24.584166     49.168333
     -2.127127     21.400733     21.400733     42.801466
     -2.117117     19.091290     19.091290     38.182580
     -2.107107     17.519222     17.519222     35.038444
     -2.097097     16.469372     16.469372     32.938744
     -2.087087     15.760353     15.760353     31.520706
     -2.077077     15.280523     15.280523     30.561046
     -2.067067     14.945764     14.945764     29.891528
     -2.057057     14.633906     14.633906     29.267812
     -2.047047     14.162126     14.162126     28.324251
     -2.037037     13.334519     13.334519     26.669037
     -2.027027     12.030408     12.030408     24.060817
     -2.017017     10.273254     10.273254     20.546509
     -2.007007      8.235054      8.235054     16.470108
     -1.996997      6.175812      6.175812     12.351624
     -1.986987      4.356955      4.356955      8.713909
     -1.976977      2.976061      2.976061      5.952121
     -1.966967      2.148286      2.148286      4.296572
     -1.956957      1.927449      1.927449      3.854898
     -1.946947      2.338554      2.338554      4.677108
     -1.936937      3.393226      3.393226      6.786451
     -1.926927      5.076044      5.076044     10.152089
     -1.916917      7.311566      7.311566     14.623133
     -1.906907      9.936438      9.936438     19.872876
     -1.896897     12.700439     12.700439     25.400877
     -1.886887     15.304818     15.304818     30.609637
     -1.876877     17.465660     17.465660     34.931319
     -1.866867     18.977641     18.977641     37.955282
     -1.856857     19.756264     19.756264     39.512527
     -1.846847     19.848576     19.848576     39.697152
     -1.836837     19.412221     19.412221     38.824441
     -1.826827     18.665894     18.665894     37.331788
     -1.816817     17.818156     17.818156     35.636313
     -1.806807     16.993104     16.993104     33.986208
     -1.796797     16.184613     16.184613     32.369226
     -1.786787     15.268681     15.268681     30.537362
     -1.776777     14.076951     14.076951     28.153901
     -1.766767     12.497375     12.497375     24.994751
     -1.756757     10.548289     10.548289     21.096579
     -1.746747      8.387188      8.387188     16.774376
     -1.736737      6.255575      6.255575     12.511149
     -1.726727      4.397199      4.397199      8.794398
     -1.716717      2.995184      2.995184      5.990367
     -1.706707      2.152716      2.152716      4.305431
     -1.696697      1.910472      1.910472      3.820944
     -1.686687      2.273028      2.273028      4.546055
     -1.676677      3.216559      3.216559      6.433119
     -1.666667      4.668075      4.668075      9.336150
     -1.656657      6.470614      6.470614     12.941227
     -1.646647      8.365580      8.365580     16.731159
     -1.636637     10.021771     10.021771     20.043542
     -1.626627     11.118579     11.118579     22.237159
