# EIG2DOS: Utility for SIESTA to obtain the electronic density of states
#  E. Artacho, Apr 1999, A. Garcia, Apr 2012
#  Nick R. Papior, Feb 2017
# ------------------------------------------
# Eigenvalues calculated from a non-polarized calculation
# Eigenvalues read from siesta.EIG
# Kpoint weights read from siesta.KP
# Using smearing parameter:   0.0500
# Using 1000 points in the energy range
# Selected bands: 1 to: 2981
# Emin, Emax in file for selected band(s):    -27.1446297    218.3729730
# Nbands, Nspin, Nk   =   2981     1     1
# E_F                 =    -4.2332 eV --> (shifted to ZERO)
# Broadening          =     0.0500 eV
#
#        E            N(up)  (=)   N(down)         Ntot
     -5.000000     32.805514     32.805514     65.611027
     -4.989990     37.141745     37.141745     74.283490
     -4.979980     41.038851     41.038851     82.077702
     -4.969970     43.879933     43.879933     87.759866
     -4.959960     45.165769     45.165769     90.331539
     -4.949950     44.677666     44.677666     89.355333
     -4.939940     42.558587     42.558587     85.117174
     -4.929930     39.292574     39.292574     78.585148
     -4.919920     35.608689     35.608689     71.217377
     -4.909910     32.353404     32.353404     64.706808
     -4.899900     30.357814     30.357814     60.715628
     -4.889890     30.296260     30.296260     60.592520
     -4.879880     32.526187     32.526187     65.052374
     -4.869870     36.930986     36.930986     73.861972
     -4.859860     42.835144     42.835144     85.670289
     -4.849850     49.076533     49.076533     98.153066
     -4.839840     54.271299     54.271299    108.542599
     -4.829830     57.208151     57.208151    114.416302
     -4.819820     57.221354     57.221354    114.442708
     -4.809810     54.379517     54.379517    108.759035
     -4.799800     49.408341     49.408341     98.816683
     -4.789790     43.394550     43.394550     86.789100
     -4.779780     37.416470     37.416470     74.832941
     -4.769770     32.258276     32.258276     64.516552
     -4.759760     28.294610     28.294610     56.589219
     -4.749750     25.535508     25.535508     51.071016
     -4.739740     23.757980     23.757980     47.515961
     -4.729730     22.643566     22.643566     45.287132
     -4.719720     21.873514     21.873514     43.747027
     -4.709710     21.173436     21.173436     42.346872
     -4.699700     20.326646     20.326646     40.653292
     -4.689690     19.184364     19.184364     38.368727
     -4.679680     17.693252     17.693252     35.386504
     -4.669670     15.940925     15.940925     31.881850
     -4.659660     14.198120     14.198120     28.396240
     -4.649650     12.925160     12.925160     25.850321
     -4.639640     12.717284     12.717284     25.434568
     -4.629630     14.183979     14.183979     28.367957
     -4.619620     17.781331     17.781331     35.562661
     -4.609610     23.636830     23.636830     47.273659
     -4.599600     31.420805     31.420805     62.841611
     -4.589590     40.322433     40.322433     80.644866
     -4.579580     49.170378     49.170378     98.340755
     -4.569570     56.692828     56.692828    113.385655
     -4.559560     61.851131     61.851131    123.702262
     -4.549550     64.135041     64.135041    128.270082
     -4.539540     63.704994     63.704994    127.409988
     -4.529530     61.316692     61.316692    122.633384
     -4.519520     58.047194     58.047194    116.094388
     -4.509510     54.923221     54.923221    109.846443
     -4.499499     52.594203     52.594203    105.188405
     -4.489489     51.173093     51.173093    102.346186
     -4.479479     50.293592     50.293592    100.587184
     -4.469469     49.337616     49.337616     98.675231
     -4.459459     47.719019     47.719019     95.438038
     -4.449449     45.101739     45.101739     90.203479
     -4.439439     41.481614     41.481614     82.963228
     -4.429429     37.137254     37.137254     74.274508
     -4.419419     32.511847     32.511847     65.023695
     -4.409409     28.096849     28.096849     56.193698
     -4.399399     24.354632     24.354632     48.709264
     -4.389389     21.671937     21.671937     43.343873
     -4.379379     20.314621     20.314621     40.629243
     -4.369369     20.370299     20.370299     40.740598
     -4.359359     21.700894     21.700894     43.401787
     -4.349349     23.947979     23.947979     47.895958
     -4.339339     26.618142     26.618142     53.236283
     -4.329329     29.231765     29.231765     58.463529
     -4.319319     31.477367     31.477367     62.954734
     -4.309309     33.303472     33.303472     66.606943
     -4.299299     34.905999     34.905999     69.811998
     -4.289289     36.613363     36.613363     73.226726
     -4.279279     38.710336     38.710336     77.420671
     -4.269269     41.263293     41.263293     82.526586
     -4.259259     44.013833     44.013833     88.027665
     -4.249249     46.395129     46.395129     92.790257
     -4.239239     47.690195     47.690195     95.380389
     -4.229229     47.292885     47.292885     94.585770
     -4.219219     44.971597     44.971597     89.943194
     -4.209209     41.011588     41.011588     82.023176
     -4.199199     36.154146     36.154146     72.308292
     -4.189189     31.347846     31.347846     62.695693
     -4.179179     27.424376     27.424376     54.848752
     -4.169169     24.848319     24.848319     49.696637
     -4.159159     23.645149     23.645149     47.290298
     -4.149149     23.515965     23.515965     47.031929
     -4.139139     24.059220     24.059220     48.118440
     -4.129129     24.982041     24.982041     49.964082
     -4.119119     26.203669     26.203669     52.407337
     -4.109109     27.811363     27.811363     55.622727
     -4.099099     29.898564     29.898564     59.797129
     -4.089089     32.373009     32.373009     64.746018
     -4.079079     34.846404     34.846404     69.692808
     -4.069069     36.687972     36.687972     73.375944
     -4.059059     37.243260     37.243260     74.486520
     -4.049049     36.123434     36.123434     72.246869
     -4.039039     33.417736     33.417736     66.835471
     -4.029029     29.713340     29.713340     59.426681
     -4.019019     25.909033     25.909033     51.818065
     -4.009009     22.918358     22.918358     45.836715
     -3.998999     21.405962     21.405962     42.811925
     -3.988989     21.663226     21.663226     43.326452
     -3.978979     23.639460     23.639460     47.278920
     -3.968969     27.065261     27.065261     54.130521
     -3.958959     31.581105     31.581105     63.162209
     -3.948949     36.818353     36.818353     73.636706
     -3.938939     42.434016     42.434016     84.868033
     -3.928929     48.130451     48.130451     96.260902
     -3.918919     53.679180     53.679180    107.358359
     -3.908909     58.934401     58.934401    117.868801
     -3.898899     63.804053     63.804053    127.608105
     -3.888889     68.166303     68.166303    136.332607
     -3.878879     71.764600     71.764600    143.529201
     -3.868869     74.149286     74.149286    148.298573
     -3.858859     74.727751     74.727751    149.455502
     -3.848849     72.935151     72.935151    145.870302
     -3.838839     68.470202     68.470202    136.940403
     -3.828829     61.494284     61.494284    122.988569
     -3.818819     52.695611     52.695611    105.391222
     -3.808809     43.174497     43.174497     86.348993
     -3.798799     34.183255     34.183255     68.366511
     -3.788789     26.814372     26.814372     53.628745
     -3.778779     21.744901     21.744901     43.489801
     -3.768769     19.112945     19.112945     38.225891
     -3.758759     18.547369     18.547369     37.094737
     -3.748749     19.323110     19.323110     38.646220
     -3.738739     20.587656     20.587656     41.175311
     -3.728729     21.598305     21.598305     43.196610
     -3.718719     21.916016     21.916016     43.832032
     -3.708709     21.512869     21.512869     43.025739
     -3.698699     20.765565     20.765565     41.531130
     -3.688689     20.329372     20.329372     40.658744
     -3.678679     20.916843     20.916843     41.833685
     -3.668669     23.039034     23.039034     46.078068
     -3.658659     26.791969     26.791969     53.583939
     -3.648649     31.770644     31.770644     63.541288
     -3.638639     37.155370     37.155370     74.310740
     -3.628629     41.947585     41.947585     83.895169
     -3.618619     45.265098     45.265098     90.530196
     -3.608609     46.579838     46.579838     93.159677
     -3.598599     45.814179     45.814179     91.628359
     -3.588589     43.285182     43.285182     86.570363
     -3.578579     39.551947     39.551947     79.103895
     -3.568569     35.241942     35.241942     70.483884
     -3.558559     30.908489     30.908489     61.816977
     -3.548549     26.936697     26.936697     53.873395
     -3.538539     23.498907     23.498907     46.997814
     -3.528529     20.563589     20.563589     41.127178
     -3.518519     17.961517     17.961517     35.923033
     -3.508509     15.494837     15.494837     30.989675
     -3.498498     13.049208     13.049208     26.098416
     -3.488488     10.660853     10.660853     21.321706
     -3.478478      8.511106      8.511106     17.022212
     -3.468468      6.857128      6.857128     13.714257
     -3.458458      5.933897      5.933897     11.867794
     -3.448448      5.865725      5.865725     11.731451
     -3.438438      6.612675      6.612675     13.225349
     -3.428428      7.963877      7.963877     15.927755
     -3.418418      9.582511      9.582511     19.165022
     -3.408408     11.099051     11.099051     22.198103
     -3.398398     12.232612     12.232612     24.465224
     -3.388388     12.899648     12.899648     25.799295
     -3.378378     13.262198     13.262198     26.524396
     -3.368368     13.687374     13.687374     27.374747
     -3.358358     14.629280     14.629280     29.258561
     -3.348348     16.479282     16.479282     32.958564
     -3.338338     19.437332     19.437332     38.874664
     -3.328328     23.435306     23.435306     46.870612
     -3.318318     28.115672     28.115672     56.231344
     -3.308308     32.860148     32.860148     65.720297
     -3.298298     36.874647     36.874647     73.749293
     -3.288288     39.343428     39.343428     78.686856
     -3.278278     39.641408     39.641408     79.282815
     -3.268268     37.544846     37.544846     75.089691
     -3.258258     33.347568     33.347568     66.695135
     -3.248248     27.811745     27.811745     55.623491
     -3.238238     21.956765     21.956765     43.913530
     -3.228228     16.769129     16.769129     33.538257
     -3.218218     12.947661     12.947661     25.895322
     -3.208208     10.767610     10.767610     21.535221
     -3.198198     10.085527     10.085527     20.171053
     -3.188188     10.456655     10.456655     20.913311
     -3.178178     11.316314     11.316314     22.632628
     -3.168168     12.175887     12.175887     24.351773
     -3.158158     12.785908     12.785908     25.571815
     -3.148148     13.220950     13.220950     26.441900
     -3.138138     13.854164     13.854164     27.708328
     -3.128128     15.219942     15.219942     30.439884
     -3.118118     17.802829     17.802829     35.605659
     -3.108108     21.821580     21.821580     43.643159
     -3.098098     27.084696     27.084696     54.169392
     -3.088088     32.974556     32.974556     65.949112
     -3.078078     38.576634     38.576634     77.153269
     -3.068068     42.919196     42.919196     85.838392
     -3.058058     45.243367     45.243367     90.486734
     -3.048048     45.204596     45.204596     90.409193
     -3.038038     42.930560     42.930560     85.861120
     -3.028028     38.923561     38.923561     77.847123
     -3.018018     33.867036     33.867036     67.734072
     -3.008008     28.434000     28.434000     56.868000
     -2.997998     23.177148     23.177148     46.354295
     -2.987988     18.520483     18.520483     37.040966
     -2.977978     14.812520     14.812520     29.625039
     -2.967968     12.377066     12.377066     24.754131
     -2.957958     11.514936     11.514936     23.029872
     -2.947948     12.447312     12.447312     24.894623
     -2.937938     15.224062     15.224062     30.448123
     -2.927928     19.637337     19.637337     39.274673
     -2.917918     25.183490     25.183490     50.366980
     -2.907908     31.106767     31.106767     62.213534
     -2.897898     36.534388     36.534388     73.068776
     -2.887888     40.676123     40.676123     81.352245
     -2.877878     43.025180     43.025180     86.050360
     -2.867868     43.482299     43.482299     86.964597
     -2.857858     42.346567     42.346567     84.693133
     -2.847848     40.170703     40.170703     80.341405
     -2.837838     37.540408     37.540408     75.080816
     -2.827828     34.874067     34.874067     69.748134
     -2.817818     32.328758     32.328758     64.657515
     -2.807808     29.844379     29.844379     59.688759
     -2.797798     27.287583     27.287583     54.575165
     -2.787788     24.608720     24.608720     49.217440
     -2.777778     21.924559     21.924559     43.849118
     -2.767768     19.486731     19.486731     38.973463
     -2.757758     17.563687     17.563687     35.127374
     -2.747748     16.313385     16.313385     32.626771
     -2.737738     15.726084     15.726084     31.452169
     -2.727728     15.669857     15.669857     31.339714
     -2.717718     16.003876     16.003876     32.007751
     -2.707708     16.678908     16.678908     33.357815
     -2.697698     17.752132     17.752132     35.504264
     -2.687688     19.302261     19.302261     38.604522
     -2.677678     21.303404     21.303404     42.606808
     -2.667668     23.551726     23.551726     47.103452
     -2.657658     25.709212     25.709212     51.418425
     -2.647648     27.450282     27.450282     54.900564
     -2.637638     28.623085     28.623085     57.246170
     -2.627628     29.321921     29.321921     58.643842
     -2.617618     29.823548     29.823548     59.647097
     -2.607608     30.428659     30.428659     60.857317
     -2.597598     31.306311     31.306311     62.612623
     -2.587588     32.424988     32.424988     64.849975
     -2.577578     33.585927     33.585927     67.171854
     -2.567568     34.509654     34.509654     69.019309
     -2.557558     34.913473     34.913473     69.826946
     -2.547548     34.556234     34.556234     69.112468
     -2.537538     33.272759     33.272759     66.545519
     -2.527528     31.028469     31.028469     62.056937
     -2.517518     27.989582     27.989582     55.979165
     -2.507508     24.562284     24.562284     49.124568
     -2.497497     21.347863     21.347863     42.695726
     -2.487487     19.000514     19.000514     38.001028
     -2.477477     18.032424     18.032424     36.064848
     -2.467467     18.647507     18.647507     37.295014
     -2.457457     20.678793     20.678793     41.357587
     -2.447447     23.660529     23.660529     47.321059
     -2.437437     27.007135     27.007135     54.014270
     -2.427427     30.223373     30.223373     60.446746
     -2.417417     33.054016     33.054016     66.108032
     -2.407407     35.506131     35.506131     71.012263
     -2.397397     37.735088     37.735088     75.470177
     -2.387387     39.851616     39.851616     79.703232
     -2.377377     41.749875     41.749875     83.499750
     -2.367367     43.052242     43.052242     86.104485
     -2.357357     43.213518     43.213518     86.427036
     -2.347347     41.748073     41.748073     83.496146
     -2.337337     38.477258     38.477258     76.954516
     -2.327327     33.678170     33.678170     67.356341
     -2.317317     28.060945     28.060945     56.121890
     -2.307307     22.585325     22.585325     45.170651
     -2.297297     18.199897     18.199897     36.399794
     -2.287287     15.609453     15.609453     31.218905
     -2.277277     15.143670     15.143670     30.287341
     -2.267267     16.743472     16.743472     33.486945
     -2.257257     20.036182     20.036182     40.072364
     -2.247247     24.453810     24.453810     48.907620
     -2.237237     29.354301     29.354301     58.708601
     -2.227227     34.119139     34.119139     68.238278
     -2.217217     38.214627     38.214627     76.429253
     -2.207207     41.218409     41.218409     82.436817
     -2.197197     42.827112     42.827112     85.654224
     -2.187187     42.868350     42.868350     85.736701
     -2.177177     41.331567     41.331567     82.663135
     -2.167167     38.406863     38.406863     76.813727
     -2.157157     34.494816     34.494816     68.989632
     -2.147147     30.147561     30.147561     60.295122
     -2.137137     25.934145     25.934145     51.868289
     -2.127127     22.275114     22.275114     44.550229
     -2.117117     19.324814     19.324814     38.649628
     -2.107107     16.964773     16.964773     33.929547
     -2.097097     14.912510     14.912510     29.825021
     -2.087087     12.885694     12.885694     25.771389
     -2.077077     10.735449     10.735449     21.470897
     -2.067067      8.489473      8.489473     16.978946
     -2.057057      6.302957      6.302957     12.605914
     -2.047047      4.363019      4.363019      8.726038
     -2.037037      2.804097      2.804097      5.608193
     -2.027027      1.669534      1.669534      3.339067
     -2.017017      0.920991      0.920991      1.841983
     -2.007007      0.474830      0.474830      0.949660
     -1.996997      0.241363      0.241363      0.482726
     -1.986987      0.152872      0.152872      0.305745
     -1.976977      0.178320      0.178320      0.356640
     -1.966967      0.329154      0.329154      0.658308
     -1.956957      0.660126      0.660126      1.320252
     -1.946947      1.264465      1.264465      2.528929
     -1.936937      2.258736      2.258736      4.517471
     -1.926927      3.753208      3.753208      7.506415
     -1.916917      5.810262      5.810262     11.620525
     -1.906907      8.403653      8.403653     16.807305
     -1.896897     11.398336     11.398336     22.796671
     -1.886887     14.566942     14.566942     29.133883
     -1.876877     17.643290     17.643290     35.286581
     -1.866867     20.393605     20.393605     40.787210
     -1.856857     22.674652     22.674652     45.349304
     -1.846847     24.452811     24.452811     48.905622
     -1.836837     25.776330     25.776330     51.552661
     -1.826827     26.714324     26.714324     53.428647
     -1.816817     27.290562     27.290562     54.581125
     -1.806807     27.442882     27.442882     54.885765
     -1.796797     27.029720     27.029720     54.059441
     -1.786787     25.886048     25.886048     51.772096
     -1.776777     23.907780     23.907780     47.815561
     -1.766767     21.127074     21.127074     42.254149
     -1.756757     17.741514     17.741514     35.483029
     -1.746747     14.080672     14.080672     28.161343
     -1.736737     10.524080     10.524080     21.048161
     -1.726727      7.407951      7.407951     14.815902
     -1.716717      4.960506      4.960506      9.921013
     -1.706707      3.287226      3.287226      6.574451
     -1.696697      2.399544      2.399544      4.799089
     -1.686687      2.259587      2.259587      4.519173
     -1.676677      2.809528      2.809528      5.619056
     -1.666667      3.967694      3.967694      7.935388
     -1.656657      5.596914      5.596914     11.193829
     -1.646647      7.472083      7.472083     14.944166
     -1.636637      9.281356      9.281356     18.562712
     -1.626627     10.682102     10.682102     21.364203
