# EIG2DOS: Utility for SIESTA to obtain the electronic density of states
#  E. Artacho, Apr 1999, A. Garcia, Apr 2012
#  Nick R. Papior, Feb 2017
# ------------------------------------------
# Eigenvalues calculated from a non-polarized calculation
# Eigenvalues read from siesta.EIG
# Kpoint weights read from siesta.KP
# Using smearing parameter:   0.0500
# Using 1000 points in the energy range
# Selected bands: 1 to: 2981
# Emin, Emax in file for selected band(s):    -27.0818565    218.3513080
# Nbands, Nspin, Nk   =   2981     1     1
# E_F                 =    -4.2542 eV --> (shifted to ZERO)
# Broadening          =     0.0500 eV
#
#        E            N(up)  (=)   N(down)         Ntot
     -5.000000     34.587516     34.587516     69.175032
     -4.989990     38.360465     38.360465     76.720930
     -4.979980     41.683612     41.683612     83.367224
     -4.969970     43.944644     43.944644     87.889289
     -4.959960     44.706945     44.706945     89.413889
     -4.949950     43.831642     43.831642     87.663284
     -4.939940     41.517028     41.517028     83.034056
     -4.929930     38.255836     38.255836     76.511673
     -4.919920     34.742988     34.742988     69.485977
     -4.909910     31.768925     31.768925     63.537850
     -4.899900     30.108806     30.108806     60.217612
     -4.889890     30.391757     30.391757     60.783514
     -4.879880     32.938012     32.938012     65.876024
     -4.869870     37.593455     37.593455     75.186911
     -4.859860     43.641854     43.641854     87.283708
     -4.849850     49.885812     49.885812     99.771623
     -4.839840     54.928733     54.928733    109.857466
     -4.829830     57.583547     57.583547    115.167094
     -4.819820     57.245873     57.245873    114.491746
     -4.809810     54.064933     54.064933    108.129866
     -4.799800     48.838019     48.838019     97.676038
     -4.789790     42.690238     42.690238     85.380476
     -4.779780     36.696830     36.696830     73.393659
     -4.769770     31.607006     31.607006     63.214011
     -4.759760     27.748267     27.748267     55.496534
     -4.749750     25.090168     25.090168     50.180337
     -4.739740     23.386671     23.386671     46.773342
     -4.729730     22.315294     22.315294     44.630588
     -4.719720     21.567493     21.567493     43.134987
     -4.709710     20.885506     20.885506     41.771012
     -4.699700     20.067347     20.067347     40.134694
     -4.689690     18.970189     18.970189     37.940378
     -4.679680     17.534592     17.534592     35.069184
     -4.669670     15.831647     15.831647     31.663293
     -4.659660     14.111294     14.111294     28.222588
     -4.649650     12.816553     12.816553     25.633106
     -4.639640     12.533441     12.533441     25.066882
     -4.629630     13.866811     13.866811     27.733622
     -4.619620     17.258990     17.258990     34.517979
     -4.609610     22.795078     22.795078     45.590156
     -4.599600     30.062319     30.062319     60.124639
     -4.589590     38.140045     38.140045     76.280090
     -4.579580     45.772285     45.772285     91.544570
     -4.569570     51.707897     51.707897    103.415795
     -4.559560     55.104705     55.104705    110.209409
     -4.549550     55.835037     55.835037    111.670073
     -4.539540     54.546640     54.546640    109.093280
     -4.529530     52.429729     52.429729    104.859458
     -4.519520     50.771950     50.771950    101.543899
     -4.509510     50.480089     50.480089    100.960179
     -4.499499     51.761778     51.761778    103.523557
     -4.489489     54.087993     54.087993    108.175987
     -4.479479     56.434860     56.434860    112.869720
     -4.469469     57.688199     57.688199    115.376398
     -4.459459     57.037443     57.037443    114.074887
     -4.449449     54.209652     54.209652    108.419303
     -4.439439     49.482645     49.482645     98.965289
     -4.429429     43.520482     43.520482     87.040964
     -4.419419     37.140100     37.140100     74.280200
     -4.409409     31.115940     31.115940     62.231880
     -4.399399     26.072719     26.072719     52.145437
     -4.389389     22.449811     22.449811     44.899621
     -4.379379     20.488839     20.488839     40.977679
     -4.369369     20.213115     20.213115     40.426230
     -4.359359     21.409962     21.409962     42.819924
     -4.349349     23.654664     23.654664     47.309328
     -4.339339     26.403319     26.403319     52.806639
     -4.329329     29.140072     29.140072     58.280145
     -4.319319     31.524245     31.524245     63.048491
     -4.309309     33.474069     33.474069     66.948137
     -4.299299     35.150623     35.150623     70.301245
     -4.289289     36.848624     36.848624     73.697248
     -4.279279     38.834948     38.834948     77.669897
     -4.269269     41.190381     41.190381     82.380763
     -4.259259     43.709635     43.709635     87.419270
     -4.249249     45.904754     45.904754     91.809509
     -4.239239     47.132898     47.132898     94.265796
     -4.229229     46.823927     46.823927     93.647854
     -4.219219     44.726867     44.726867     89.453733
     -4.209209     41.061565     41.061565     82.123131
     -4.199199     36.487906     36.487906     72.975812
     -4.189189     31.889917     31.889917     63.779835
     -4.179179     28.070073     28.070073     56.140147
     -4.169169     25.497482     25.497482     50.994964
     -4.159159     24.221334     24.221334     48.442667
     -4.149149     23.970577     23.970577     47.941155
     -4.139139     24.368550     24.368550     48.737099
     -4.129129     25.145168     25.145168     50.290337
     -4.119119     26.243037     26.243037     52.486074
     -4.109109     27.771432     27.771432     55.542863
     -4.099099     29.836743     29.836743     59.673487
     -4.089089     32.342176     32.342176     64.684352
     -4.079079     34.875897     34.875897     69.751794
     -4.069069     36.773909     36.773909     73.547819
     -4.059059     37.355240     37.355240     74.710480
     -4.049049     36.224795     36.224795     72.449589
     -4.039039     33.487317     33.487317     66.974633
     -4.029029     29.755177     29.755177     59.510354
     -4.019019     25.944233     25.944233     51.888466
     -4.009009     22.965311     22.965311     45.930623
     -3.998999     21.462560     21.462560     42.925119
     -3.988989     21.702849     21.702849     43.405699
     -3.978979     23.622971     23.622971     47.245942
     -3.968969     26.960987     26.960987     53.921974
     -3.958959     31.380705     31.380705     62.761410
     -3.948949     36.540337     36.540337     73.080674
     -3.938939     42.114935     42.114935     84.229870
     -3.928929     47.810486     47.810486     95.620972
     -3.918919     53.390210     53.390210    106.780420
     -3.908909     58.695027     58.695027    117.390053
     -3.898899     63.620928     63.620928    127.241856
     -3.888889     68.038007     68.038007    136.076015
     -3.878879     71.684599     71.684599    143.369199
     -3.868869     74.107158     74.107158    148.214316
     -3.858859     74.710278     74.710278    149.420556
     -3.848849     72.929155     72.929155    145.858311
     -3.838839     68.467021     68.467021    136.934043
     -3.828829     61.493557     61.493557    122.987113
     -3.818819     52.705628     52.705628    105.411255
     -3.808809     43.208341     43.208341     86.416681
     -3.798799     34.252505     34.252505     68.505010
     -3.788789     26.923374     26.923374     53.846748
     -3.778779     21.887839     21.887839     43.775677
     -3.768769     19.274336     19.274336     38.548673
     -3.758759     18.705438     18.705438     37.410876
     -3.748749     19.455118     19.455118     38.910236
     -3.738739     20.676061     20.676061     41.352122
     -3.728729     21.636279     21.636279     43.272559
     -3.718719     21.910494     21.910494     43.820988
     -3.708709     21.483568     21.483568     42.967136
     -3.698699     20.739470     20.739470     41.478940
     -3.688689     20.331818     20.331818     40.663637
     -3.678679     20.961925     20.961925     41.923850
     -3.668669     23.123012     23.123012     46.246024
     -3.658659     26.892878     26.892878     53.785757
     -3.648649     31.855173     31.855173     63.710346
     -3.638639     37.190831     37.190831     74.381663
     -3.628629     41.914096     41.914096     83.828192
     -3.618619     45.162714     45.162714     90.325428
     -3.608609     46.427793     46.427793     92.855586
     -3.598599     45.643307     45.643307     91.286615
     -3.588589     43.127495     43.127495     86.254991
     -3.578579     39.431744     39.431744     78.863488
     -3.568569     35.170979     35.170979     70.341959
     -3.558559     30.885406     30.885406     61.770811
     -3.548549     26.949509     26.949509     53.899018
     -3.538539     23.529299     23.529299     47.058599
     -3.528529     20.592127     20.592127     41.184255
     -3.518519     17.972924     17.972924     35.945848
     -3.508509     15.482201     15.482201     30.964403
     -3.498498     13.015889     13.015889     26.031779
     -3.488488     10.619452     10.619452     21.238904
     -3.478478      8.479832      8.479832     16.959664
     -3.468468      6.854665      6.854665     13.709329
     -3.458458      5.973986      5.973986     11.947971
     -3.448448      5.952469      5.952469     11.904938
     -3.438438      6.737536      6.737536     13.475072
     -3.428428      8.105605      8.105605     16.211211
     -3.418418      9.711121      9.711121     19.422242
     -3.408408     11.183867     11.183867     22.367734
     -3.398398     12.252419     12.252419     24.504837
     -3.388388     12.851445     12.851445     25.702890
     -3.378378     13.165137     13.165137     26.330275
     -3.368368     13.580301     13.580301     27.160602
     -3.358358     14.562576     14.562576     29.125151
     -3.348348     16.502926     16.502926     33.005853
     -3.338338     19.587240     19.587240     39.174481
     -3.328328     23.720127     23.720127     47.440254
     -3.318318     28.507442     28.507442     57.014883
     -3.308308     33.293437     33.293437     66.586875
     -3.298298     37.257600     37.257600     74.515200
     -3.288288     39.578847     39.578847     79.157695
     -3.278278     39.648657     39.648657     79.297314
     -3.268268     37.268798     37.268798     74.537596
     -3.258258     32.743753     32.743753     65.487507
     -3.248248     26.807799     26.807799     53.615599
     -3.238238     20.404829     20.404829     40.809658
     -3.228228     14.415010     14.415010     28.830020
     -3.218218      9.444117      9.444117     18.888235
     -3.208208      5.747752      5.747752     11.495503
     -3.198198      3.289090      3.289090      6.578179
     -3.188188      1.873883      1.873883      3.747767
     -3.178178      1.294646      1.294646      2.589292
     -3.168168      1.437356      1.437356      2.874713
     -3.158158      2.332116      2.332116      4.664231
     -3.148148      4.145138      4.145138      8.290277
     -3.138138      7.113262      7.113262     14.226524
     -3.128128     11.426867     11.426867     22.853733
     -3.118118     17.084099     17.084099     34.168198
     -3.108108     23.765751     23.765751     47.531501
     -3.098098     30.797141     30.797141     61.594282
     -3.088088     37.247997     37.247997     74.495994
     -3.078078     42.166592     42.166592     84.333184
     -3.068068     44.871941     44.871941     89.743882
     -3.058058     45.180267     45.180267     90.360534
     -3.048048     43.455712     43.455712     86.911425
     -3.038038     40.452433     40.452433     80.904865
     -3.028028     37.016994     37.016994     74.033988
     -3.018018     33.789080     33.789080     67.578159
     -3.008008     31.035323     31.035323     62.070647
     -2.997998     28.678837     28.678837     57.357675
     -2.987988     26.487991     26.487991     52.975981
     -2.977978     24.315751     24.315751     48.631502
     -2.967968     22.268467     22.268467     44.536933
     -2.957958     20.727827     20.727827     41.455655
     -2.947948     20.222175     20.222175     40.444351
     -2.937938     21.207564     21.207564     42.415128
     -2.927928     23.851351     23.851351     47.702702
     -2.917918     27.905967     27.905967     55.811933
     -2.907908     32.725250     32.725250     65.450500
     -2.897898     37.423870     37.423870     74.847740
     -2.887888     41.127616     41.127616     82.255233
     -2.877878     43.225771     43.225771     86.451542
     -2.867868     43.531694     43.531694     87.063387
     -2.857858     42.290657     42.290657     84.581314
     -2.847848     40.035517     40.035517     80.071035
     -2.837838     37.355696     37.355696     74.711393
     -2.827828     34.682078     34.682078     69.364156
     -2.817818     32.179484     32.179484     64.358967
     -2.807808     29.782781     29.782781     59.565563
     -2.797798     27.340155     27.340155     54.680310
     -2.787788     24.775678     24.775678     49.551356
     -2.777778     22.180503     22.180503     44.361007
     -2.767768     19.788510     19.788510     39.577020
     -2.757758     17.861317     17.861317     35.722634
     -2.747748     16.559507     16.559507     33.119015
     -2.737738     15.881398     15.881398     31.762796
     -2.727728     15.704921     15.704921     31.409841
     -2.717718     15.899905     15.899905     31.799809
     -2.707708     16.430470     16.430470     32.860940
     -2.697698     17.372720     17.372720     34.745440
     -2.687688     18.830476     18.830476     37.660952
     -2.677678     20.804851     20.804851     41.609702
     -2.667668     23.111796     23.111796     46.223591
     -2.657658     25.415661     25.415661     50.831323
     -2.647648     27.370374     27.370374     54.740747
     -2.637638     28.784282     28.784282     57.568565
     -2.627628     29.704436     29.704436     59.408873
     -2.617618     30.367433     30.367433     60.734867
     -2.607608     31.051260     31.051260     62.102520
     -2.597598     31.922303     31.922303     63.844605
     -2.587588     32.962443     32.962443     65.924886
     -2.577578     33.995869     33.995869     67.991738
     -2.567568     34.769731     34.769731     69.539462
     -2.557558     35.027296     35.027296     70.054592
     -2.547548     34.549364     34.549364     69.098728
     -2.537538     33.186008     33.186008     66.372016
     -2.527528     30.909571     30.909571     61.819142
     -2.517518     27.884695     27.884695     55.769389
     -2.507508     24.508460     24.508460     49.016920
     -2.497497     21.366967     21.366967     42.733934
     -2.487487     19.094769     19.094769     38.189538
     -2.477477     18.182427     18.182427     36.364855
     -2.467467     18.814343     18.814343     37.628686
     -2.457457     20.811650     20.811650     41.623299
     -2.447447     23.709295     23.709295     47.418590
     -2.437437     26.936725     26.936725     53.873451
     -2.427427     30.024920     30.024920     60.049840
     -2.417417     32.748954     32.748954     65.497908
     -2.407407     35.142073     35.142073     70.284146
     -2.397397     37.375131     37.375131     74.750262
     -2.387387     39.559911     39.559911     79.119822
     -2.377377     41.576303     41.576303     83.152606
     -2.367367     43.019327     43.019327     86.038654
     -2.357357     43.309530     43.309530     86.619059
     -2.347347     41.929935     41.929935     83.859870
     -2.337337     38.683703     38.683703     77.367405
     -2.327327     33.848578     33.848578     67.697155
     -2.317317     28.151905     28.151905     56.303811
     -2.307307     22.578228     22.578228     45.156456
     -2.297297     18.098178     18.098178     36.196357
     -2.287287     15.429728     15.429728     30.859456
     -2.277277     14.907079     14.907079     29.814157
     -2.267267     16.471411     16.471411     32.942822
     -2.257257     19.750607     19.750607     39.501214
     -2.247247     24.179332     24.179332     48.358664
     -2.237237     29.118853     29.118853     58.237707
     -2.227227     33.951468     33.951468     67.902935
     -2.217217     38.138899     38.138899     76.277798
     -2.207207     41.247884     41.247884     82.495767
     -2.197197     42.959497     42.959497     85.918994
     -2.187187     43.085075     43.085075     86.170149
     -2.177177     41.601757     41.601757     83.203513
     -2.167167     38.694821     38.694821     77.389641
     -2.157157     34.768243     34.768243     69.536486
     -2.147147     30.383519     30.383519     60.767038
     -2.137137     26.121007     26.121007     52.242014
     -2.127127     22.410819     22.410819     44.821637
     -2.117117     19.413286     19.413286     38.826573
     -2.107107     17.012670     17.012670     34.025341
     -2.097097     14.927441     14.927441     29.854883
     -2.087087     12.875752     12.875752     25.751505
     -2.077077     10.709108     10.709108     21.418217
     -2.067067      8.455084      8.455084     16.910169
     -2.057057      6.267756      6.267756     12.535513
     -2.047047      4.332145      4.332145      8.664291
     -2.037037      2.780165      2.780165      5.560329
     -2.027027      1.652945      1.652945      3.305891
     -2.017017      0.910778      0.910778      1.821557
     -2.007007      0.469653      0.469653      0.939305
     -1.996997      0.240410      0.240410      0.480819
     -1.986987      0.156609      0.156609      0.313219
     -1.976977      0.189139      0.189139      0.378278
     -1.966967      0.351863      0.351863      0.703726
     -1.956957      0.701902      0.701902      1.403805
     -1.946947      1.333533      1.333533      2.667067
     -1.936937      2.360882      2.360882      4.721763
     -1.926927      3.885505      3.885505      7.771011
     -1.916917      5.952043      5.952043     11.904086
     -1.906907      8.505319      8.505319     17.010637
     -1.896897     11.368740     11.368740     22.737480
     -1.886887     14.260057     14.260057     28.520114
     -1.876877     16.846317     16.846317     33.692633
     -1.866867     18.822932     18.822932     37.645864
     -1.856857     19.992213     19.992213     39.984426
     -1.846847     20.318068     20.318068     40.636137
     -1.836837     19.941424     19.941424     39.882849
     -1.826827     19.149327     19.149327     38.298654
     -1.816817     18.300016     18.300016     36.600032
     -1.806807     17.720075     17.720075     35.440150
     -1.796797     17.605415     17.605415     35.210830
     -1.786787     17.963481     17.963481     35.926962
     -1.776777     18.619631     18.619631     37.239262
     -1.766767     19.281462     19.281462     38.562924
     -1.756757     19.630367     19.630367     39.260734
     -1.746747     19.406154     19.406154     38.812307
     -1.736737     18.465699     18.465699     36.931397
     -1.726727     16.813355     16.813355     33.626709
     -1.716717     14.605834     14.605834     29.211669
     -1.706707     12.130255     12.130255     24.260509
     -1.696697      9.752919      9.752919     19.505837
     -1.686687      7.844094      7.844094     15.688187
     -1.676677      6.694548      6.694548     13.389095
     -1.666667      6.444162      6.444162     12.888325
     -1.656657      7.040166      7.040166     14.080332
     -1.646647      8.237517      8.237517     16.475035
     -1.636637      9.648943      9.648943     19.297886
     -1.626627     10.842809     10.842809     21.685618
