# EIG2DOS: Utility for SIESTA to obtain the electronic density of states
#  E. Artacho, Apr 1999, A. Garcia, Apr 2012
#  Nick R. Papior, Feb 2017
# ------------------------------------------
# Eigenvalues calculated from a non-polarized calculation
# Eigenvalues read from siesta.EIG
# Kpoint weights read from siesta.KP
# Using smearing parameter:   0.0500
# Using 1000 points in the energy range
# Selected bands: 1 to: 2981
# Emin, Emax in file for selected band(s):    -27.0559559    218.3330510
# Nbands, Nspin, Nk   =   2981     1     1
# E_F                 =    -4.2742 eV --> (shifted to ZERO)
# Broadening          =     0.0500 eV
#
#        E            N(up)  (=)   N(down)         Ntot
     -5.000000     37.016579     37.016579     74.033159
     -4.989990     39.458008     39.458008     78.916016
     -4.979980     41.669857     41.669857     83.339714
     -4.969970     43.172517     43.172517     86.345035
     -4.959960     43.576054     43.576054     87.152108
     -4.949950     42.703733     42.703733     85.407466
     -4.939940     40.649390     40.649390     81.298780
     -4.929930     37.767363     37.767363     75.534727
     -4.919920     34.617958     34.617958     69.235917
     -4.909910     31.892342     31.892342     63.784683
     -4.899900     30.320881     30.320881     60.641761
     -4.889890     30.548006     30.548006     61.096012
     -4.879880     32.961127     32.961127     65.922255
     -4.869870     37.501791     37.501791     75.003582
     -4.859860     43.541526     43.541526     87.083051
     -4.849850     49.924575     49.924575     99.849150
     -4.839840     55.228099     55.228099    110.456198
     -4.829830     58.179782     58.179782    116.359565
     -4.819820     58.068634     58.068634    116.137269
     -4.809810     54.962852     54.962852    109.925704
     -4.799800     49.635808     49.635808     99.271617
     -4.789790     43.248145     43.248145     86.496291
     -4.779780     36.947923     36.947923     73.895845
     -4.769770     31.564238     31.564238     63.128477
     -4.759760     27.488279     27.488279     54.976559
     -4.749750     24.725949     24.725949     49.451898
     -4.739740     23.038200     23.038200     46.076400
     -4.729730     22.083083     22.083083     44.166165
     -4.719720     21.512884     21.512884     43.025768
     -4.709710     21.021987     21.021987     42.043973
     -4.699700     20.365113     20.365113     40.730226
     -4.689690     19.370927     19.370927     38.741853
     -4.679680     17.968515     17.968515     35.937030
     -4.669670     16.228291     16.228291     32.456583
     -4.659660     14.400173     14.400173     28.800347
     -4.649650     12.920553     12.920553     25.841106
     -4.639640     12.363143     12.363143     24.726286
     -4.629630     13.325560     13.325560     26.651120
     -4.619620     16.265513     16.265513     32.531026
     -4.609610     21.322180     21.322180     42.644360
     -4.599600     28.177721     28.177721     56.355441
     -4.589590     36.024220     36.024220     72.048440
     -4.579580     43.687470     43.687470     87.374940
     -4.569570     49.909240     49.909240     99.818479
     -4.559560     53.715371     53.715371    107.430742
     -4.549550     54.736379     54.736379    109.472758
     -4.539540     53.343169     53.343169    106.686338
     -4.529530     50.527602     50.527602    101.055204
     -4.519520     47.566447     47.566447     95.132893
     -4.509510     45.600711     45.600711     91.201421
     -4.499499     45.291751     45.291751     90.583501
     -4.489489     46.669758     46.669758     93.339516
     -4.479479     49.199309     49.199309     98.398618
     -4.469469     52.000921     52.000921    104.001841
     -4.459459     54.126567     54.126567    108.253134
     -4.449449     54.799130     54.799130    109.598261
     -4.439439     53.568566     53.568566    107.137133
     -4.429429     50.378891     50.378891    100.757782
     -4.419419     45.559964     45.559964     91.119928
     -4.409409     39.757771     39.757771     79.515543
     -4.399399     33.811322     33.811322     67.622644
     -4.389389     28.587076     28.587076     57.174151
     -4.379379     24.796068     24.796068     49.592137
     -4.369369     22.836399     22.836399     45.672799
     -4.359359     22.710581     22.710581     45.421162
     -4.349349     24.052677     24.052677     48.105354
     -4.339339     26.264279     26.264279     52.528558
     -4.329329     28.715376     28.715376     57.430753
     -4.319319     30.938134     30.938134     61.876268
     -4.309309     32.744740     32.744740     65.489480
     -4.299299     34.233441     34.233441     68.466882
     -4.289289     35.690729     35.690729     71.381459
     -4.279279     37.430471     37.430471     74.860941
     -4.269269     39.623683     39.623683     79.247367
     -4.259259     42.172071     42.172071     84.344143
     -4.249249     44.672277     44.672277     89.344553
     -4.239239     46.501877     46.501877     93.003754
     -4.229229     47.020683     47.020683     94.041366
     -4.219219     45.824108     45.824108     91.648216
     -4.209209     42.939125     42.939125     85.878249
     -4.199199     38.858599     38.858599     77.717197
     -4.189189     34.381184     34.381184     68.762369
     -4.179179     30.326173     30.326173     60.652345
     -4.169169     27.260833     27.260833     54.521666
     -4.159159     25.366589     25.366589     50.733178
     -4.149149     24.489515     24.489515     48.979030
     -4.139139     24.323964     24.323964     48.647929
     -4.129129     24.620520     24.620520     49.241041
     -4.119119     25.311956     25.311956     50.623912
     -4.109109     26.500001     26.500001     53.000001
     -4.099099     28.314536     28.314536     56.629072
     -4.089089     30.720448     30.720448     61.440896
     -4.079079     33.382319     33.382319     66.764639
     -4.069069     35.681535     35.681535     71.363069
     -4.059059     36.908473     36.908473     73.816945
     -4.049049     36.553238     36.553238     73.106476
     -4.039039     34.550266     34.550266     69.100532
     -4.029029     31.345368     31.345368     62.690736
     -4.019019     27.747996     27.747996     55.495992
     -4.009009     24.648772     24.648772     49.297544
     -3.998999     22.747051     22.747051     45.494101
     -3.988989     22.407451     22.407451     44.814902
     -3.978979     23.673659     23.673659     47.347319
     -3.968969     26.378671     26.378671     52.757341
     -3.958959     30.259625     30.259625     60.519250
     -3.948949     35.020765     35.020765     70.041531
     -3.938939     40.350092     40.350092     80.700185
     -3.928929     45.931643     45.931643     91.863286
     -3.918919     51.481884     51.481884    102.963767
     -3.908909     56.795169     56.795169    113.590338
     -3.898899     61.752665     61.752665    123.505330
     -3.888889     66.261543     66.261543    132.523086
     -3.878879     70.140585     70.140585    140.281171
     -3.868869     73.019285     73.019285    146.038571
     -3.858859     74.331735     74.331735    148.663470
     -3.848849     73.448485     73.448485    146.896971
     -3.838839     69.915801     69.915801    139.831601
     -3.828829     63.702954     63.702954    127.405908
     -3.818819     55.336467     55.336467    110.672933
     -3.808809     45.842931     45.842931     91.685861
     -3.798799     36.508557     36.508557     73.017113
     -3.788789     28.545793     28.545793     57.091585
     -3.778779     22.791411     22.791411     45.582822
     -3.768769     19.534745     19.534745     39.069490
     -3.758759     18.513196     18.513196     37.026391
     -3.748749     19.051919     19.051919     38.103838
     -3.738739     20.289935     20.289935     40.579871
     -3.728729     21.427345     21.427345     42.854691
     -3.718719     21.936202     21.936202     43.872404
     -3.708709     21.690151     21.690151     43.380303
     -3.698699     20.982680     20.982680     41.965360
     -3.688689     20.423910     20.423910     40.847820
     -3.678679     20.734121     20.734121     41.468241
     -3.668669     22.485793     22.485793     44.971587
     -3.658659     25.873967     25.873967     51.747934
     -3.648649     30.600174     30.600174     61.200347
     -3.638639     35.924465     35.924465     71.848929
     -3.628629     40.876024     40.876024     81.752048
     -3.618619     44.542672     44.542672     89.085345
     -3.608609     46.323389     46.323389     92.646777
     -3.598599     46.051015     46.051015     92.102029
     -3.588589     43.961624     43.961624     87.923248
     -3.578579     40.557201     40.557201     81.114402
     -3.568569     36.436892     36.436892     72.873783
     -3.558559     32.153306     32.153306     64.306612
     -3.548549     28.114448     28.114448     56.228896
     -3.538539     24.532239     24.532239     49.064478
     -3.528529     21.420626     21.420626     42.841251
     -3.518519     18.648913     18.648913     37.297826
     -3.508509     16.040972     16.040972     32.081944
     -3.498498     13.485080     13.485080     26.970161
     -3.488488     11.006725     11.006725     22.013450
     -3.478478      8.772929      8.772929     17.545858
     -3.468468      7.031418      7.031418     14.062836
     -3.458458      6.016472      6.016472     12.032944
     -3.448448      5.859674      5.859674     11.719349
     -3.438438      6.532614      6.532614     13.065227
     -3.428428      7.835226      7.835226     15.670452
     -3.418418      9.435587      9.435587     18.871173
     -3.408408     10.959053     10.959053     21.918106
     -3.398398     12.108397     12.108397     24.216795
     -3.388388     12.775696     12.775696     25.551391
     -3.378378     13.097741     13.097741     26.195483
     -3.368368     13.423963     13.423963     26.847926
     -3.358358     14.204611     14.204611     28.409221
     -3.348348     15.843523     15.843523     31.687045
     -3.338338     18.569345     18.569345     37.138690
     -3.328328     22.357968     22.357968     44.715936
     -3.318318     26.908542     26.908542     53.817083
     -3.308308     31.663172     31.663172     63.326345
     -3.298298     35.872614     35.872614     71.745227
     -3.288288     38.724054     38.724054     77.448109
     -3.278278     39.532253     39.532253     79.064505
     -3.268268     37.948874     37.948874     75.897748
     -3.258258     34.102578     34.102578     68.205155
     -3.248248     28.589383     28.589383     57.178767
     -3.238238     22.299282     22.299282     44.598565
     -3.228228     16.150393     16.150393     32.300787
     -3.218218     10.847067     10.847067     21.694134
     -3.208208      6.754782      6.754782     13.509563
     -3.198198      3.915108      3.915108      7.830215
     -3.188188      2.158248      2.158248      4.316496
     -3.178178      1.244508      1.244508      2.489015
     -3.168168      0.980466      0.980466      1.960932
     -3.158158      1.286768      1.286768      2.573537
     -3.148148      2.217905      2.217905      4.435810
     -3.138138      3.941149      3.941149      7.882298
     -3.128128      6.678713      6.678713     13.357425
     -3.118118     10.616582     10.616582     21.233164
     -3.108108     15.793153     15.793153     31.586306
     -3.098098     21.998149     21.998149     43.996298
     -3.088088     28.725613     28.725613     57.451226
     -3.078078     35.219826     35.219826     70.439652
     -3.068068     40.623345     40.623345     81.246690
     -3.058058     44.190725     44.190725     88.381449
     -3.048048     45.493071     45.493071     90.986141
     -3.038038     44.532632     44.532632     89.065265
     -3.028028     41.722574     41.722574     83.445149
     -3.018018     37.747600     37.747600     75.495201
     -3.008008     33.371120     33.371120     66.742240
     -2.997998     29.265765     29.265765     58.531530
     -2.987988     25.915996     25.915996     51.831991
     -2.977978     23.599549     23.599549     47.199097
     -2.967968     22.425428     22.425428     44.850857
     -2.957958     22.397029     22.397029     44.794059
     -2.947948     23.469698     23.469698     46.939397
     -2.937938     25.575112     25.575112     51.150225
     -2.927928     28.596339     28.596339     57.192677
     -2.917918     32.304972     32.304972     64.609945
     -2.907908     36.305544     36.305544     72.611089
     -2.897898     40.045576     40.045576     80.091152
     -2.887888     42.921949     42.921949     85.843899
     -2.877878     44.455574     44.455574     88.911149
     -2.867868     44.454408     44.454408     88.908816
     -2.857858     43.077596     43.077596     86.155192
     -2.847848     40.759766     40.759766     81.519532
     -2.837838     38.027641     38.027641     76.055282
     -2.827828     35.297832     35.297832     70.595664
     -2.817818     32.752588     32.752588     65.505176
     -2.807808     30.346356     30.346356     60.692711
     -2.797798     27.925718     27.925718     55.851436
     -2.787788     25.387392     25.387392     50.774783
     -2.777778     22.784035     22.784035     45.568071
     -2.767768     20.322582     20.322582     40.645164
     -2.757758     18.264252     18.264252     36.528505
     -2.747748     16.792714     16.792714     33.585428
     -2.737738     15.933756     15.933756     31.867512
     -2.727728     15.575736     15.575736     31.151473
     -2.717718     15.574677     15.574677     31.149355
     -2.707708     15.871544     15.871544     31.743088
     -2.697698     16.539014     16.539014     33.078028
     -2.687688     17.720177     17.720177     35.440354
     -2.677678     19.494995     19.494995     38.989990
     -2.667668     21.763783     21.763783     43.527567
     -2.657658     24.232437     24.232437     48.464875
     -2.647648     26.520841     26.520841     53.041681
     -2.637638     28.334080     28.334080     56.668160
     -2.627628     29.591889     29.591889     59.183778
     -2.617618     30.437653     30.437653     60.875305
     -2.607608     31.127401     31.127401     62.254801
     -2.597598     31.874788     31.874788     63.749576
     -2.587588     32.745887     32.745887     65.491774
     -2.577578     33.649200     33.649200     67.298401
     -2.567568     34.395329     34.395329     68.790657
     -2.557558     34.765475     34.765475     69.530951
     -2.547548     34.550945     34.550945     69.101891
     -2.537538     33.576093     33.576093     67.152185
     -2.527528     31.741987     31.741987     63.483973
     -2.517518     29.102772     29.102772     58.205545
     -2.507508     25.936560     25.936560     51.873119
     -2.497497     22.747110     22.747110     45.494219
     -2.487487     20.159209     20.159209     40.318418
     -2.477477     18.732623     18.732623     37.465246
     -2.467467     18.773163     18.773163     37.546325
     -2.457457     20.229671     20.229671     40.459342
     -2.447447     22.728014     22.728014     45.456028
     -2.437437     25.729356     25.729356     51.458711
     -2.427427     28.741792     28.741792     57.483584
     -2.417417     31.488493     31.488493     62.976986
     -2.407407     33.954473     33.954473     67.908945
     -2.397397     36.291157     36.291157     72.582314
     -2.387387     38.627716     38.627716     77.255431
     -2.377377     40.886906     40.886906     81.773812
     -2.367367     42.705815     42.705815     85.411630
     -2.357357     43.514742     43.514742     87.029485
     -2.347347     42.751236     42.751236     85.502473
     -2.337337     40.117181     40.117181     80.234363
     -2.327327     35.760661     35.760661     71.521323
     -2.317317     30.297060     30.297060     60.594120
     -2.307307     24.659462     24.659462     49.318924
     -2.297297     19.845107     19.845107     39.690214
     -2.287287     16.660981     16.660981     33.321963
     -2.277277     15.554270     15.554270     31.108541
     -2.267267     16.562790     16.562790     33.125579
     -2.257257     19.370970     19.370970     38.741939
     -2.247247     23.430033     23.430033     46.860066
     -2.237237     28.096606     28.096606     56.193211
     -2.227227     32.751457     32.751457     65.502914
     -2.217217     36.873043     36.873043     73.746085
     -2.207207     40.059640     40.059640     80.119280
     -2.197197     42.017479     42.017479     84.034957
     -2.187187     42.549413     42.549413     85.098826
     -2.177177     41.574260     41.574260     83.148520
     -2.167167     39.177000     39.177000     78.354000
     -2.157157     35.651738     35.651738     71.303476
     -2.147147     31.483326     31.483326     62.966652
     -2.137137     27.239879     27.239879     54.479758
     -2.127127     23.405758     23.405758     46.811516
     -2.117117     20.233183     20.233183     40.466367
     -2.107107     17.691762     17.691762     35.383524
     -2.097097     15.543120     15.543120     31.086240
     -2.087087     13.496670     13.496670     26.993340
     -2.077077     11.360549     11.360549     22.721097
     -2.067067      9.114516      9.114516     18.229033
     -2.057057      6.885052      6.885052     13.770104
     -2.047047      4.857803      4.857803      9.715605
     -2.037037      3.185683      3.185683      6.371367
     -2.027027      1.936454      1.936454      3.872909
     -2.017017      1.090494      1.090494      2.180989
     -2.007007      0.572347      0.572347      1.144693
     -1.996997      0.291185      0.291185      0.582370
     -1.986987      0.172750      0.172750      0.345500
     -1.976977      0.177678      0.177678      0.355357
     -1.966967      0.309359      0.309359      0.618718
     -1.956957      0.615483      0.615483      1.230966
     -1.946947      1.183489      1.183489      2.366977
     -1.936937      2.125756      2.125756      4.251511
     -1.926927      3.550046      3.550046      7.100092
     -1.916917      5.516515      5.516515     11.033029
     -1.906907      7.992641      7.992641     15.985282
     -1.896897     10.825317     10.825317     21.650635
     -1.886887     13.747992     13.747992     27.495984
     -1.876877     16.428330     16.428330     32.856659
     -1.866867     18.544481     18.544481     37.088963
     -1.856857     19.865961     19.865961     39.731922
     -1.846847     20.313807     20.313807     40.627615
     -1.836837     19.981443     19.981443     39.962887
     -1.826827     19.106879     19.106879     38.213757
     -1.816817     17.998016     17.998016     35.996032
     -1.806807     16.929137     16.929137     33.858275
     -1.796797     16.045670     16.045670     32.091341
     -1.786787     15.322580     15.322580     30.645159
     -1.776777     14.604607     14.604607     29.209215
     -1.766767     13.715693     13.715693     27.431386
     -1.756757     12.583397     12.583397     25.166794
     -1.746747     11.311018     11.311018     22.622036
     -1.736737     10.156549     10.156549     20.313098
     -1.726727      9.427828      9.427828     18.855655
     -1.716717      9.346860      9.346860     18.693720
     -1.706707      9.950185      9.950185     19.900369
     -1.696697     11.072101     11.072101     22.144201
     -1.686687     12.415909     12.415909     24.831818
     -1.676677     13.674946     13.674946     27.349893
     -1.666667     14.640618     14.640618     29.281236
     -1.656657     15.243169     15.243169     30.486338
     -1.646647     15.511298     15.511298     31.022595
     -1.636637     15.487180     15.487180     30.974360
     -1.626627     15.161285     15.161285     30.322570
