# EIG2DOS: Utility for SIESTA to obtain the electronic density of states
#  E. Artacho, Apr 1999, A. Garcia, Apr 2012
#  Nick R. Papior, Feb 2017
# ------------------------------------------
# Eigenvalues calculated from a non-polarized calculation
# Eigenvalues read from siesta.EIG
# Kpoint weights read from siesta.KP
# Using smearing parameter:   0.0500
# Using 1000 points in the energy range
# Selected bands: 1 to: 2981
# Emin, Emax in file for selected band(s):    -27.1655129    218.3590970
# Nbands, Nspin, Nk   =   2981     1     1
# E_F                 =    -4.2436 eV --> (shifted to ZERO)
# Broadening          =     0.0500 eV
#
#        E            N(up)  (=)   N(down)         Ntot
     -5.000000     34.865601     34.865601     69.731201
     -4.989990     38.652014     38.652014     77.304027
     -4.979980     41.704789     41.704789     83.409579
     -4.969970     43.572013     43.572013     87.144025
     -4.959960     43.961856     43.961856     87.923712
     -4.949950     42.836802     42.836802     85.673604
     -4.939940     40.439848     40.439848     80.879696
     -4.929930     37.256629     37.256629     74.513259
     -4.919920     33.941311     33.941311     67.882622
     -4.909910     31.231408     31.231408     62.462815
     -4.899900     29.852810     29.852810     59.705619
     -4.889890     30.395756     30.395756     60.791513
     -4.879880     33.151988     33.151988     66.303976
     -4.869870     37.947552     37.947552     75.895104
     -4.859860     44.055192     44.055192     88.110384
     -4.849850     50.277630     50.277630    100.555261
     -4.839840     55.231549     55.231549    110.463098
     -4.829830     57.755017     57.755017    115.510033
     -4.819820     57.274792     57.274792    114.549584
     -4.809810     53.968399     53.968399    107.936798
     -4.799800     48.650604     48.650604     97.301208
     -4.789790     42.449887     42.449887     84.899773
     -4.779780     36.433576     36.433576     72.867152
     -4.769770     31.338439     31.338439     62.676879
     -4.759760     27.481485     27.481485     54.962969
     -4.749750     24.826794     24.826794     49.653587
     -4.739740     23.127312     23.127312     46.254623
     -4.729730     22.061870     22.061870     44.123741
     -4.719720     21.323997     21.323997     42.647995
     -4.709710     20.658464     20.658464     41.316928
     -4.699700     19.866996     19.866996     39.733992
     -4.689690     18.813155     18.813155     37.626310
     -4.679680     17.448974     17.448974     34.897948
     -4.669670     15.865066     15.865066     31.730132
     -4.659660     14.341032     14.341032     28.682064
     -4.649650     13.358773     13.358773     26.717547
     -4.639640     13.547064     13.547064     27.094128
     -4.629630     15.548087     15.548087     31.096173
     -4.619620     19.825170     19.825170     39.650339
     -4.609610     26.457997     26.457997     52.915994
     -4.599600     34.993152     34.993152     69.986304
     -4.589590     44.425107     44.425107     88.850214
     -4.579580     53.359991     53.359991    106.719982
     -4.569570     60.352989     60.352989    120.705979
     -4.559560     64.326858     64.326858    128.653717
     -4.549550     64.917207     64.917207    129.834413
     -4.539540     62.594667     62.594667    125.189334
     -4.529530     58.496739     58.496739    116.993478
     -4.519520     54.027226     54.027226    108.054453
     -4.509510     50.384075     50.384075    100.768151
     -4.499499     48.202628     48.202628     96.405256
     -4.489489     47.439659     47.439659     94.879318
     -4.479479     47.510549     47.510549     95.021097
     -4.469469     47.587645     47.587645     95.175290
     -4.459459     46.920353     46.920353     93.840706
     -4.449449     45.059144     45.059144     90.118289
     -4.439439     41.932570     41.932570     83.865140
     -4.429429     37.797711     37.797711     75.595421
     -4.419419     33.125698     33.125698     66.251396
     -4.409409     28.482609     28.482609     56.965217
     -4.399399     24.434408     24.434408     48.868817
     -4.389389     21.470486     21.470486     42.940971
     -4.379379     19.928939     19.928939     39.857878
     -4.369369     19.923909     19.923909     39.847817
     -4.359359     21.302738     21.302738     42.605477
     -4.349349     23.670633     23.670633     47.341265
     -4.339339     26.497983     26.497983     52.995966
     -4.329329     29.282066     29.282066     58.564133
     -4.319319     31.700025     31.700025     63.400050
     -4.309309     33.688601     33.688601     67.377202
     -4.299299     35.418916     35.418916     70.837833
     -4.289289     37.179947     37.179947     74.359894
     -4.279279     39.217020     39.217020     78.434041
     -4.269269     41.582033     41.582033     83.164065
     -4.259259     44.047063     44.047063     88.094126
     -4.249249     46.120441     46.120441     92.240883
     -4.239239     47.180249     47.180249     94.360498
     -4.229229     46.697332     46.697332     93.394665
     -4.219219     44.467698     44.467698     88.935397
     -4.209209     40.745814     40.745814     81.491629
     -4.199199     36.199157     36.199157     72.398313
     -4.189189     31.688682     31.688682     63.377365
     -4.179179     27.973096     27.973096     55.946191
     -4.169169     25.476354     25.476354     50.952709
     -4.159159     24.220407     24.220407     48.440813
     -4.149149     23.934733     23.934733     47.869466
     -4.139139     24.267246     24.267246     48.534491
     -4.129129     24.982194     24.982194     49.964388
     -4.119119     26.049383     26.049383     52.098766
     -4.109109     27.586853     27.586853     55.173706
     -4.099099     29.690091     29.690091     59.380183
     -4.089089     32.239983     32.239983     64.479966
     -4.079079     34.804007     34.804007     69.608014
     -4.069069     36.710462     36.710462     73.420923
     -4.059059     37.287762     37.287762     74.575524
     -4.049049     36.162023     36.162023     72.324047
     -4.039039     33.458924     33.458924     66.917848
     -4.029029     29.798825     29.798825     59.597650
     -4.019019     26.086201     26.086201     52.172402
     -4.009009     23.204608     23.204608     46.409216
     -3.998999     21.766798     21.766798     43.533596
     -3.988989     22.018020     22.018020     44.036040
     -3.978979     23.891991     23.891991     47.783982
     -3.968969     27.141790     27.141790     54.283580
     -3.958959     31.456037     31.456037     62.912074
     -3.948949     36.517045     36.517045     73.034090
     -3.938939     42.016264     42.016264     84.032528
     -3.928929     47.666807     47.666807     95.333615
     -3.918919     53.231390     53.231390    106.462780
     -3.908909     58.544452     58.544452    117.088904
     -3.898899     63.490503     63.490503    126.981007
     -3.888889     67.925348     67.925348    135.850696
     -3.878879     71.575057     71.575057    143.150114
     -3.868869     73.981507     73.981507    147.963014
     -3.858859     74.554784     74.554784    149.109567
     -3.848849     72.742355     72.742355    145.484709
     -3.838839     68.259631     68.259631    136.519263
     -3.828829     61.282906     61.282906    122.565811
     -3.818819     52.509439     52.509439    105.018878
     -3.808809     43.041693     43.041693     86.083385
     -3.798799     34.127882     34.127882     68.255764
     -3.788789     26.850845     26.850845     53.701691
     -3.778779     21.872982     21.872982     43.745964
     -3.768769     19.314430     19.314430     38.628859
     -3.758759     18.786806     18.786806     37.573612
     -3.748749     19.554466     19.554466     39.108932
     -3.738739     20.766532     20.766532     41.533064
     -3.728729     21.696444     21.696444     43.392887
     -3.718719     21.932852     21.932852     43.865703
     -3.708709     21.478924     21.478924     42.957848
     -3.698699     20.734661     20.734661     41.469323
     -3.688689     20.360524     20.360524     40.721047
     -3.678679     21.051189     21.051189     42.102379
     -3.668669     23.280612     23.280612     46.561223
     -3.658659     27.101310     27.101310     54.202620
     -3.648649     32.075836     32.075836     64.151672
     -3.638639     37.377309     37.377309     74.754618
     -3.628629     42.028630     42.028630     84.057260
     -3.618619     45.188086     45.188086     90.376172
     -3.608609     46.369442     46.369442     92.738884
     -3.598599     45.522156     45.522156     91.044311
     -3.588589     42.968877     42.968877     85.937754
     -3.578579     39.256759     39.256759     78.513518
     -3.568569     34.993426     34.993426     69.986852
     -3.558559     30.713121     30.713121     61.426241
     -3.548549     26.786785     26.786785     53.573570
     -3.538539     23.378098     23.378098     46.756197
     -3.528529     20.452220     20.452220     40.904441
     -3.518519     17.842442     17.842442     35.684884
     -3.508509     15.359420     15.359420     30.718840
     -3.498498     12.901504     12.901504     25.803009
     -3.488488     10.517805     10.517805     21.035610
     -3.478478      8.398140      8.398140     16.796279
     -3.468468      6.800544      6.800544     13.601088
     -3.458458      5.952413      5.952413     11.904826
     -3.448448      5.963326      5.963326     11.926653
     -3.438438      6.774492      6.774492     13.548984
     -3.428428      8.156719      8.156719     16.313438
     -3.418418      9.761314      9.761314     19.522628
     -3.408408     11.219011     11.219011     22.438022
     -3.398398     12.264126     12.264126     24.528252
     -3.388388     12.841127     12.841127     25.682254
     -3.378378     13.145921     13.145921     26.291842
     -3.368368     13.575994     13.575994     27.151988
     -3.358358     14.603544     14.603544     29.207089
     -3.348348     16.619125     16.619125     33.238251
     -3.338338     19.798949     19.798949     39.597897
     -3.328328     24.028016     24.028016     48.056032
     -3.318318     28.885554     28.885554     57.771108
     -3.308308     33.690340     33.690340     67.380681
     -3.298298     37.610364     37.610364     75.220728
     -3.288288     39.840622     39.840622     79.681245
     -3.278278     39.824921     39.824921     79.649842
     -3.268268     37.453012     37.453012     74.906024
     -3.258258     33.142049     33.142049     66.284098
     -3.248248     27.743481     27.743481     55.486962
     -3.238238     22.294408     22.294408     44.588816
     -3.228228     17.708435     17.708435     35.416870
     -3.218218     14.527379     14.527379     29.054758
     -3.208208     12.820650     12.820650     25.641299
     -3.198198     12.251631     12.251631     24.503262
     -3.188188     12.268446     12.268446     24.536893
     -3.178178     12.342486     12.342486     24.684971
     -3.168168     12.174293     12.174293     24.348586
     -3.158158     11.805518     11.805518     23.611037
     -3.148148     11.608634     11.608634     23.217269
     -3.138138     12.162504     12.162504     24.325009
     -3.128128     14.051084     14.051084     28.102168
     -3.118118     17.639485     17.639485     35.278970
     -3.108108     22.888932     22.888932     45.777864
     -3.098098     29.272412     29.272412     58.544824
     -3.088088     35.839222     35.839222     71.678444
     -3.078078     41.436952     41.436952     82.873903
     -3.068068     45.034824     45.034824     90.069648
     -3.058058     46.031326     46.031326     92.062651
     -3.048048     44.415845     44.415845     88.831690
     -3.038038     40.712931     40.712931     81.425862
     -3.028028     35.744448     35.744448     71.488895
     -3.018018     30.335276     30.335276     60.670553
     -3.008008     25.104087     25.104087     50.208174
     -2.997998     20.414742     20.414742     40.829485
     -2.987988     16.464798     16.464798     32.929596
     -2.977978     13.420444     13.420444     26.840888
     -2.967968     11.505149     11.505149     23.010298
     -2.957958     10.996542     10.996542     21.993085
     -2.947948     12.141751     12.141751     24.283501
     -2.937938     15.035218     15.035218     30.070435
     -2.927928     19.510984     19.510984     39.021969
     -2.917918     25.094525     25.094525     50.189050
     -2.907908     31.044566     31.044566     62.089132
     -2.897898     36.490845     36.490845     72.981689
     -2.887888     40.638486     40.638486     81.276973
     -2.877878     42.974537     42.974537     85.949074
     -2.867868     43.397492     43.397492     86.794985
     -2.857858     42.212047     42.212047     84.424094
     -2.847848     39.985261     39.985261     79.970522
     -2.837838     37.322834     37.322834     74.645668
     -2.827828     34.662352     34.662352     69.324704
     -2.817818     32.171872     32.171872     64.343744
     -2.807808     29.788956     29.788956     59.577913
     -2.797798     27.364301     27.364301     54.728602
     -2.787788     24.823333     24.823333     49.646666
     -2.777778     22.256360     22.256360     44.512719
     -2.767768     19.894134     19.894134     39.788268
     -2.757758     17.994396     17.994396     35.988793
     -2.747748     16.716064     16.716064     33.432128
     -2.737738     16.061040     16.061040     32.122080
     -2.727728     15.916785     15.916785     31.833570
     -2.717718     16.164782     16.164782     32.329564
     -2.707708     16.774690     16.774690     33.549380
     -2.697698     17.813042     17.813042     35.626083
     -2.687688     19.355403     19.355403     38.710807
     -2.677678     21.362825     21.362825     42.725650
     -2.667668     23.616240     23.616240     47.232480
     -2.657658     25.769361     25.769361     51.538722
     -2.647648     27.500462     27.500462     55.000923
     -2.637638     28.671380     28.671380     57.342761
     -2.627628     29.391020     29.391020     58.782039
     -2.617618     29.941249     29.941249     59.882497
     -2.607608     30.612799     30.612799     61.225598
     -2.597598     31.552473     31.552473     63.104945
     -2.587588     32.703710     32.703710     65.407421
     -2.577578     33.850633     33.850633     67.701266
     -2.567568     34.710839     34.710839     69.421678
     -2.557558     35.012672     35.012672     70.025343
     -2.547548     34.535458     34.535458     69.070917
     -2.537538     33.138813     33.138813     66.277626
     -2.527528     30.813425     30.813425     61.626850
     -2.517518     27.747680     27.747680     55.495360
     -2.507508     24.361595     24.361595     48.723189
     -2.497497     21.255221     21.255221     42.510443
     -2.487487     19.061343     19.061343     38.122686
     -2.477477     18.251471     18.251471     36.502943
     -2.467467     18.978907     18.978907     37.957815
     -2.457457     21.032007     21.032007     42.064013
     -2.447447     23.922657     23.922657     47.845314
     -2.437437     27.074727     27.074727     54.149453
     -2.427427     30.032201     30.032201     60.064402
     -2.417417     32.596331     32.596331     65.192662
     -2.407407     34.830967     34.830967     69.661933
     -2.397397     36.934221     36.934221     73.868442
     -2.387387     39.037649     39.037649     78.075298
     -2.377377     41.032502     41.032502     82.065004
     -2.367367     42.516691     42.516691     85.033382
     -2.357357     42.904288     42.904288     85.808576
     -2.347347     41.661582     41.661582     83.323164
     -2.337337     38.566313     38.566313     77.132626
     -2.327327     33.867696     33.867696     67.735392
     -2.317317     28.269586     28.269586     56.539172
     -2.307307     22.745032     22.745032     45.490065
     -2.297297     18.267433     18.267433     36.534865
     -2.287287     15.568477     15.568477     31.136953
     -2.277277     15.000264     15.000264     30.000528
     -2.267267     16.519241     16.519241     33.038482
     -2.257257     19.761777     19.761777     39.523554
     -2.247247     24.163756     24.163756     48.327511
     -2.237237     29.082902     29.082902     58.165804
     -2.227227     33.897177     33.897177     67.794355
     -2.217217     38.066792     38.066792     76.133585
     -2.207207     41.161526     41.161526     82.323053
     -2.197197     42.869129     42.869129     85.738258
     -2.187187     43.007990     43.007990     86.015981
     -2.177177     41.558592     41.558592     83.117184
     -2.167167     38.702953     38.702953     77.405907
     -2.157157     34.835155     34.835155     69.670309
     -2.147147     30.503209     30.503209     61.006418
     -2.137137     26.275192     26.275192     52.550385
     -2.127127     22.574374     22.574374     45.148749
     -2.117117     19.561544     19.561544     39.123088
     -2.107107     17.127679     17.127679     34.255358
     -2.097097     15.001201     15.001201     30.002402
     -2.087087     12.909972     12.909972     25.819944
     -2.077077     10.712371     10.712371     21.424742
     -2.067067      8.438934      8.438934     16.877868
     -2.057057      6.243156      6.243156     12.486313
     -2.047047      4.307231      4.307231      8.614461
     -2.037037      2.759535      2.759535      5.519070
     -2.027027      1.638179      1.638179      3.276357
     -2.017017      0.901574      0.901574      1.803149
     -2.007007      0.465081      0.465081      0.930161
     -1.996997      0.239998      0.239998      0.479997
     -1.986987      0.161334      0.161334      0.322669
     -1.976977      0.202591      0.202591      0.405182
     -1.966967      0.382015      0.382015      0.764030
     -1.956957      0.764062      0.764062      1.528125
     -1.946947      1.455406      1.455406      2.910811
     -1.936937      2.591131      2.591131      5.182261
     -1.926927      4.307326      4.307326      8.614653
     -1.916917      6.701782      6.701782     13.403564
     -1.906907      9.791872      9.791872     19.583744
     -1.896897     13.482575     13.482575     26.965149
     -1.886887     17.554787     17.554787     35.109575
     -1.876877     21.677492     21.677492     43.354985
     -1.866867     25.443514     25.443514     50.887029
     -1.856857     28.429597     28.429597     56.859195
     -1.846847     30.280073     30.280073     60.560146
     -1.836837     30.800206     30.800206     61.600412
     -1.826827     30.024179     30.024179     60.048358
     -1.816817     28.214280     28.214280     56.428560
     -1.806807     25.772017     25.772017     51.544033
     -1.796797     23.092328     23.092328     46.184656
     -1.786787     20.433479     20.433479     40.866957
     -1.776777     17.871228     17.871228     35.742456
     -1.766767     15.354102     15.354102     30.708203
     -1.756757     12.814093     12.814093     25.628186
     -1.746747     10.259555     10.259555     20.519111
     -1.736737      7.800656      7.800656     15.601311
     -1.726727      5.608952      5.608952     11.217905
     -1.716717      3.851774      3.851774      7.703548
     -1.706707      2.645758      2.645758      5.291516
     -1.696697      2.048277      2.048277      4.096554
     -1.686687      2.074403      2.074403      4.148806
     -1.676677      2.711670      2.711670      5.423339
     -1.666667      3.911694      3.911694      7.823388
     -1.656657      5.559425      5.559425     11.118850
     -1.646647      7.443297      7.443297     14.886594
     -1.636637      9.258768      9.258768     18.517535
     -1.626627     10.665800     10.665800     21.331600
