# EIG2DOS: Utility for SIESTA to obtain the electronic density of states
#  E. Artacho, Apr 1999, A. Garcia, Apr 2012
#  Nick R. Papior, Feb 2017
# ------------------------------------------
# Eigenvalues calculated from a non-polarized calculation
# Eigenvalues read from siesta.EIG
# Kpoint weights read from siesta.KP
# Using smearing parameter:   0.0500
# Using 1000 points in the energy range
# Selected bands: 1 to: 2981
# Emin, Emax in file for selected band(s):    -27.0388370    218.3076410
# Nbands, Nspin, Nk   =   2981     1     1
# E_F                 =    -4.3060 eV --> (shifted to ZERO)
# Broadening          =     0.0500 eV
#
#        E            N(up)  (=)   N(down)         Ntot
     -5.000000     45.972214     45.972214     91.944428
     -4.989990     48.722804     48.722804     97.445608
     -4.979980     49.975470     49.975470     99.950940
     -4.969970     49.719519     49.719519     99.439039
     -4.959960     48.119078     48.119078     96.238155
     -4.949950     45.456898     45.456898     90.913796
     -4.939940     42.086357     42.086357     84.172714
     -4.929930     38.412125     38.412125     76.824250
     -4.919920     34.898155     34.898155     69.796310
     -4.909910     32.080205     32.080205     64.160409
     -4.899900     30.546278     30.546278     61.092557
     -4.889890     30.848773     30.848773     61.697547
     -4.879880     33.336688     33.336688     66.673376
     -4.869870     37.947804     37.947804     75.895608
     -4.859860     44.058104     44.058104     88.116209
     -4.849850     50.504342     50.504342    101.008684
     -4.839840     55.839450     55.839450    111.678900
     -4.829830     58.761372     58.761372    117.522743
     -4.819820     58.542206     58.542206    117.084412
     -4.809810     55.258421     55.258421    110.516841
     -4.799800     49.714863     49.714863     99.429725
     -4.789790     43.112793     43.112793     86.225586
     -4.779780     36.634050     36.634050     73.268100
     -4.769770     31.126296     31.126296     62.252591
     -4.759760     26.985422     26.985422     53.970845
     -4.749750     24.214275     24.214275     48.428550
     -4.739740     22.567524     22.567524     45.135047
     -4.729730     21.694440     21.694440     43.388881
     -4.719720     21.235117     21.235117     42.470233
     -4.709710     20.868754     20.868754     41.737508
     -4.699700     20.334143     20.334143     40.668286
     -4.689690     19.445215     19.445215     38.890430
     -4.679680     18.117336     18.117336     36.234672
     -4.669670     16.406499     16.406499     32.812997
     -4.659660     14.547130     14.547130     29.094261
     -4.649650     12.962708     12.962708     25.925417
     -4.639640     12.224586     12.224586     24.449172
     -4.629630     12.948134     12.948134     25.896268
     -4.619620     15.634885     15.634885     31.269771
     -4.609610     20.490311     20.490311     40.980622
     -4.599600     27.268473     27.268473     54.536946
     -4.589590     35.211221     35.211221     70.422442
     -4.579580     43.143755     43.143755     86.287511
     -4.569570     49.743346     49.743346     99.486692
     -4.559560     53.919571     53.919571    107.839142
     -4.549550     55.170942     55.170942    110.341885
     -4.539540     53.764573     53.764573    107.529145
     -4.529530     50.647055     50.647055    101.294110
     -4.519520     47.111048     47.111048     94.222097
     -4.509510     44.351524     44.351524     88.703047
     -4.499499     43.089779     43.089779     86.179558
     -4.489489     43.402746     43.402746     86.805491
     -4.479479     44.797298     44.797298     89.594596
     -4.469469     46.467213     46.467213     92.934426
     -4.459459     47.610338     47.610338     95.220675
     -4.449449     47.683375     47.683375     95.366750
     -4.439439     46.519148     46.519148     93.038296
     -4.429429     44.297468     44.297468     88.594937
     -4.419419     41.416562     41.416562     82.833125
     -4.409409     38.337894     38.337894     76.675788
     -4.399399     35.467533     35.467533     70.935066
     -4.389389     33.101253     33.101253     66.202506
     -4.379379     31.420020     31.420020     62.840040
     -4.369369     30.501454     30.501454     61.002908
     -4.359359     30.322074     30.322074     60.644149
     -4.349349     30.753619     30.753619     61.507238
     -4.339339     31.578374     31.578374     63.156747
     -4.329329     32.543458     32.543458     65.086915
     -4.319319     33.445659     33.445659     66.891318
     -4.309309     34.210353     34.210353     68.420705
     -4.299299     34.923079     34.923079     69.846159
     -4.289289     35.793139     35.793139     71.586277
     -4.279279     37.058348     37.058348     74.116695
     -4.269269     38.861509     38.861509     77.723018
     -4.259259     41.138667     41.138667     82.277334
     -4.249249     43.562652     43.562652     87.125304
     -4.239239     45.581399     45.581399     91.162798
     -4.229229     46.566488     46.566488     93.132977
     -4.219219     46.037117     46.037117     92.074234
     -4.209209     43.869289     43.869289     87.738579
     -4.199199     40.382097     40.382097     80.764194
     -4.189189     36.241497     36.241497     72.482994
     -4.179179     32.217928     32.217928     64.435855
     -4.169169     28.916651     28.916651     57.833302
     -4.159159     26.612285     26.612285     53.224569
     -4.149149     25.254840     25.254840     50.509681
     -4.139139     24.619020     24.619020     49.238040
     -4.129129     24.499997     24.499997     48.999994
     -4.119119     24.847852     24.847852     49.695703
     -4.109109     25.772912     25.772912     51.545825
     -4.099099     27.420683     27.420683     54.841365
     -4.089089     29.782011     29.782011     59.564022
     -4.079079     32.546540     32.546540     65.093080
     -4.069069     35.100529     35.100529     70.201058
     -4.059059     36.703810     36.703810     73.407620
     -4.049049     36.779953     36.779953     73.559906
     -4.039039     35.177141     35.177141     70.354281
     -4.029029     32.260414     32.260414     64.520828
     -4.019019     28.785577     28.785577     57.571153
     -4.009009     25.626174     25.626174     51.252347
     -3.998999     23.498182     23.498182     46.996365
     -3.988989     22.807342     22.807342     45.614684
     -3.978979     23.653244     23.653244     47.306489
     -3.968969     25.930831     25.930831     51.861663
     -3.958959     29.435670     29.435670     58.871341
     -3.948949     33.915597     33.915597     67.831193
     -3.938939     39.077072     39.077072     78.154143
     -3.928929     44.593657     44.593657     89.187313
     -3.918919     50.149506     50.149506    100.299013
     -3.908909     55.502377     55.502377    111.004754
     -3.898899     60.513848     60.513848    121.027696
     -3.888889     65.102788     65.102788    130.205576
     -3.878879     69.128670     69.128670    138.257340
     -3.868869     72.269645     72.269645    144.539290
     -3.858859     73.985104     73.985104    147.970208
     -3.848849     73.622055     73.622055    147.244110
     -3.838839     70.649932     70.649932    141.299864
     -3.828829     64.929292     64.929292    129.858583
     -3.818819     56.884015     56.884015    113.768029
     -3.808809     47.480511     47.480511     94.961021
     -3.798799     38.005692     38.005692     76.011385
     -3.788789     29.728278     29.728278     59.456556
     -3.778779     23.573895     23.573895     47.147790
     -3.768769     19.924863     19.924863     39.849727
     -3.758759     18.592480     18.592480     37.184961
     -3.748749     18.943622     18.943622     37.887243
     -3.738739     20.123527     20.123527     40.247055
     -3.728729     21.306922     21.306922     42.613843
     -3.718719     21.917798     21.917798     43.835596
     -3.708709     21.771645     21.771645     43.543289
     -3.698699     21.108560     21.108560     42.217121
     -3.688689     20.504688     20.504688     41.009376
     -3.678679     20.676408     20.676408     41.352816
     -3.668669     22.225049     22.225049     44.450097
     -3.658659     25.399524     25.399524     50.799047
     -3.648649     29.963385     29.963385     59.926770
     -3.638639     35.226387     35.226387     70.452774
     -3.628629     40.239187     40.239187     80.478373
     -3.618619     44.078119     44.078119     88.156238
     -3.608609     46.105281     46.105281     92.210561
     -3.598599     46.105941     46.105941     92.211883
     -3.588589     44.271935     44.271935     88.543871
     -3.578579     41.072445     41.072445     82.144890
     -3.568569     37.087428     37.087428     74.174857
     -3.558559     32.863390     32.863390     65.726779
     -3.548549     28.814478     28.814478     57.628956
     -3.538539     25.169398     25.169398     50.338795
     -3.528529     21.965360     21.965360     43.930720
     -3.518519     19.094684     19.094684     38.189369
     -3.508509     16.397348     16.397348     32.794695
     -3.498498     13.767615     13.767615     27.535230
     -3.488488     11.228443     11.228443     22.456886
     -3.478478      8.940585      8.940585     17.881170
     -3.468468      7.146652      7.146652     14.293305
     -3.458458      6.079675      6.079675     12.159350
     -3.448448      5.873897      5.873897     11.747794
     -3.438438      6.505728      6.505728     13.011457
     -3.428428      7.779543      7.779543     15.559086
     -3.418418      9.364899      9.364899     18.729798
     -3.408408     10.883750     10.883750     21.767501
     -3.398398     12.030211     12.030211     24.060421
     -3.388388     12.684356     12.684356     25.368713
     -3.378378     12.971608     12.971608     25.943215
     -3.368368     13.235080     13.235080     26.470159
     -3.358358     13.926562     13.926562     27.853124
     -3.348348     15.459294     15.459294     30.918587
     -3.338338     18.077259     18.077259     36.154519
     -3.328328     21.775789     21.775789     43.551578
     -3.318318     26.276771     26.276771     52.553542
     -3.308308     31.046842     31.046842     62.093684
     -3.298298     35.357666     35.357666     70.715331
     -3.288288     38.403549     38.403549     76.807097
     -3.278278     39.482107     39.482107     78.964214
     -3.268268     38.200896     38.200896     76.401792
     -3.258258     34.627981     34.627981     69.255962
     -3.248248     29.303191     29.303191     58.606383
     -3.238238     23.085504     23.085504     46.171008
     -3.228228     16.896634     16.896634     33.793268
     -3.218218     11.472992     11.472992     22.945984
     -3.208208      7.223797      7.223797     14.447593
     -3.198198      4.228282      4.228282      8.456564
     -3.188188      2.337115      2.337115      4.674231
     -3.178178      1.311245      1.311245      2.622491
     -3.168168      0.941070      0.941070      1.882139
     -3.158158      1.118780      1.118780      2.237560
     -3.148148      1.861928      1.861928      3.723856
     -3.138138      3.295559      3.295559      6.591117
     -3.128128      5.598757      5.598757     11.197513
     -3.118118      8.921347      8.921347     17.842695
     -3.108108     13.285857     13.285857     26.571713
     -3.098098     18.505958     18.505958     37.011917
     -3.088088     24.162366     24.162366     48.324731
     -3.078078     29.665475     29.665475     59.330949
     -3.068068     34.397103     34.397103     68.794205
     -3.058058     37.877405     37.877405     75.754809
     -3.048048     39.878595     39.878595     79.757190
     -3.038038     40.429345     40.429345     80.858691
     -3.028028     39.717544     39.717544     79.435088
     -3.018018     37.964293     37.964293     75.928585
     -3.008008     35.359425     35.359425     70.718849
     -2.997998     32.100608     32.100608     64.201216
     -2.987988     28.497145     28.497145     56.994290
     -2.977978     25.046171     25.046171     50.092341
     -2.967968     22.402252     22.402252     44.804505
     -2.957958     21.228952     21.228952     42.457905
     -2.947948     21.992867     21.992867     43.985733
     -2.937938     24.791462     24.791462     49.582923
     -2.927928     29.285704     29.285704     58.571407
     -2.917918     34.759699     34.759699     69.519399
     -2.907908     40.283082     40.283082     80.566165
     -2.897898     44.925185     44.925185     89.850369
     -2.887888     47.963560     47.963560     95.927121
     -2.877878     49.035679     49.035679     98.071357
     -2.867868     48.196173     48.196173     96.392345
     -2.857858     45.862964     45.862964     91.725928
     -2.847848     42.664993     42.664993     85.329986
     -2.837838     39.237575     39.237575     78.475151
     -2.827828     36.035485     36.035485     72.070969
     -2.817818     33.232959     33.232959     66.465918
     -2.807808     30.747038     30.747038     61.494076
     -2.797798     28.366469     28.366469     56.732938
     -2.787788     25.918802     25.918802     51.837603
     -2.777778     23.390653     23.390653     46.781306
     -2.767768     20.942881     20.942881     41.885762
     -2.757758     18.821206     18.821206     37.642411
     -2.747748     17.221659     17.221659     34.443318
     -2.737738     16.194899     16.194899     32.389797
     -2.727728     15.647721     15.647721     31.295442
     -2.717718     15.437929     15.437929     30.875858
     -2.707708     15.497592     15.497592     30.995184
     -2.697698     15.899041     15.899041     31.798083
     -2.687688     16.813151     16.813151     33.626301
     -2.677678     18.380119     18.380119     36.760239
     -2.667668     20.574047     20.574047     41.148094
     -2.657658     23.152735     23.152735     46.305470
     -2.647648     25.733658     25.733658     51.467315
     -2.637638     27.956561     27.956561     55.913122
     -2.627628     29.635919     29.635919     59.271839
     -2.617618     30.812735     30.812735     61.625470
     -2.607608     31.682023     31.682023     63.364046
     -2.597598     32.452317     32.452317     64.904633
     -2.587588     33.228773     33.228773     66.457546
     -2.577578     33.979123     33.979123     67.958246
     -2.567568     34.573354     34.573354     69.146707
     -2.557558     34.842418     34.842418     69.684836
     -2.547548     34.612671     34.612671     69.225343
     -2.537538     33.721344     33.721344     67.442688
     -2.527528     32.051258     32.051258     64.102517
     -2.517518     29.605620     29.605620     59.211240
     -2.507508     26.592171     26.592171     53.184341
     -2.497497     23.450369     23.450369     46.900738
     -2.487487     20.772180     20.772180     41.544360
     -2.477477     19.127986     19.127986     38.255973
     -2.467467     18.870701     18.870701     37.741401
     -2.457457     20.011861     20.011861     40.023722
     -2.447447     22.231870     22.231870     44.463739
     -2.437437     25.022304     25.022304     50.044608
     -2.427427     27.895050     27.895050     55.790101
     -2.417417     30.560705     30.560705     61.121410
     -2.407407     32.992169     32.992169     65.984338
     -2.397397     35.343573     35.343573     70.687146
     -2.387387     37.765415     37.765415     75.530829
     -2.377377     40.210496     40.210496     80.420993
     -2.367367     42.334849     42.334849     84.669698
     -2.357357     43.556509     43.556509     87.113018
     -2.347347     43.260346     43.260346     86.520693
     -2.337337     41.063847     41.063847     82.127693
     -2.327327     37.023916     37.023916     74.047831
     -2.317317     31.688705     31.688705     63.377410
     -2.307307     25.970387     25.970387     51.940775
     -2.297297     20.895709     20.895709     41.791418
     -2.287287     17.337061     17.337061     34.674123
     -2.277277     15.818296     15.818296     31.636593
     -2.267267     16.442044     16.442044     32.884088
     -2.257257     18.932751     18.932751     37.865502
     -2.247247     22.756801     22.756801     45.513601
     -2.237237     27.271076     27.271076     54.542153
     -2.227227     31.855068     31.855068     63.710135
     -2.217217     35.993375     35.993375     71.986749
     -2.207207     39.296655     39.296655     78.593310
     -2.197197     41.478187     41.478187     82.956374
     -2.187187     42.327100     42.327100     84.654200
     -2.177177     41.718785     41.718785     83.437571
     -2.167167     39.670812     39.670812     79.341623
     -2.157157     36.406543     36.406543     72.813086
     -2.147147     32.363503     32.363503     64.727005
     -2.137137     28.105110     28.105110     56.210220
     -2.127127     24.154675     24.154675     48.309350
     -2.117117     20.828603     20.828603     41.657206
     -2.107107     18.157455     18.157455     36.314910
     -2.097097     15.936673     15.936673     31.873346
     -2.087087     13.874326     13.874326     27.748652
     -2.077077     11.751575     11.751575     23.503149
     -2.067067      9.514744      9.514744     19.029489
     -2.057057      7.267666      7.267666     14.535333
     -2.047047      5.191455      5.191455     10.382911
     -2.037037      3.449307      3.449307      6.898615
     -2.027027      2.125144      2.125144      4.250288
     -2.017017      1.213032      1.213032      2.426065
     -2.007007      0.644569      0.644569      1.289139
     -1.996997      0.329490      0.329490      0.658981
     -1.986987      0.190030      0.190030      0.380060
     -1.976977      0.181834      0.181834      0.363668
     -1.966967      0.303437      0.303437      0.606874
     -1.956957      0.598430      0.598430      1.196860
     -1.946947      1.151025      1.151025      2.302050
     -1.936937      2.071380      2.071380      4.142759
     -1.926927      3.466403      3.466403      6.932806
     -1.916917      5.397299      5.397299     10.794598
     -1.906907      7.834944      7.834944     15.669888
     -1.896897     10.632090     10.632090     21.264180
     -1.886887     13.530093     13.530093     27.060186
     -1.876877     16.205390     16.205390     32.410781
     -1.866867     18.343621     18.343621     36.687241
     -1.856857     19.717534     19.717534     39.435068
     -1.846847     20.244319     20.244319     40.488638
     -1.836837     20.005440     20.005440     40.010879
     -1.826827     19.221021     19.221021     38.442042
     -1.816817     18.180230     18.180230     36.360459
     -1.806807     17.143131     17.143131     34.286262
     -1.796797     16.247413     16.247413     32.494826
     -1.786787     15.462740     15.462740     30.925479
     -1.776777     14.621362     14.621362     29.242725
     -1.766767     13.516118     13.516118     27.032237
     -1.756757     12.018057     12.018057     24.036115
     -1.746747     10.154102     10.154102     20.308203
     -1.736737      8.110502      8.110502     16.221005
     -1.726727      6.172452      6.172452     12.344904
     -1.716717      4.642309      4.642309      9.284618
     -1.706707      3.778444      3.778444      7.556889
     -1.696697      3.769221      3.769221      7.538441
     -1.686687      4.725742      4.725742      9.451484
     -1.676677      6.665599      6.665599     13.331197
     -1.666667      9.474763      9.474763     18.949525
     -1.656657     12.864481     12.864481     25.728962
     -1.646647     16.362604     16.362604     32.725207
     -1.636637     19.375730     19.375730     38.751460
     -1.626627     21.326574     21.326574     42.653148
