# EIG2DOS: Utility for SIESTA to obtain the electronic density of states
#  E. Artacho, Apr 1999, A. Garcia, Apr 2012
#  Nick R. Papior, Feb 2017
# ------------------------------------------
# Eigenvalues calculated from a non-polarized calculation
# Eigenvalues read from siesta.EIG
# Kpoint weights read from siesta.KP
# Using smearing parameter:   0.0500
# Using 1000 points in the energy range
# Selected bands: 1 to: 2981
# Emin, Emax in file for selected band(s):    -27.3539056    218.4067810
# Nbands, Nspin, Nk   =   2981     1     1
# E_F                 =    -4.1900 eV --> (shifted to ZERO)
# Broadening          =     0.0500 eV
#
#        E            N(up)  (=)   N(down)         Ntot
     -5.000000     31.386683     31.386683     62.773366
     -4.989990     36.788878     36.788878     73.577756
     -4.979980     41.942668     41.942668     83.885335
     -4.969970     45.927502     45.927502     91.855004
     -4.959960     47.967852     47.967852     95.935704
     -4.949950     47.694530     47.694530     95.389059
     -4.939940     45.272080     45.272080     90.544160
     -4.929930     41.355951     41.355951     82.711901
     -4.919920     36.921103     36.921103     73.842205
     -4.909910     33.040393     33.040393     66.080785
     -4.899900     30.673826     30.673826     61.347652
     -4.889890     30.489685     30.489685     60.979371
     -4.879880     32.719609     32.719609     65.439217
     -4.869870     37.067699     37.067699     74.135398
     -4.859860     42.722116     42.722116     85.444232
     -4.849850     48.513669     48.513669     97.027338
     -4.839840     53.212520     53.212520    106.425040
     -4.829830     55.878181     55.878181    111.756362
     -4.819820     56.130946     56.130946    112.261892
     -4.809810     54.231435     54.231435    108.462870
     -4.799800     50.934344     50.934344    101.868688
     -4.789790     47.181097     47.181097     94.362194
     -4.779780     43.762584     43.762584     87.525168
     -4.769770     41.086436     41.086436     82.172872
     -4.759760     39.126511     39.126511     78.253022
     -4.749750     37.546835     37.546835     75.093670
     -4.739740     35.919421     35.919421     71.838842
     -4.729730     33.926581     33.926581     67.853163
     -4.719720     31.462869     31.462869     62.925738
     -4.709710     28.614283     28.614283     57.228565
     -4.699700     25.559237     25.559237     51.118474
     -4.689690     22.470983     22.470983     44.941965
     -4.679680     19.486338     19.486338     38.972675
     -4.669670     16.753020     16.753020     33.506039
     -4.659660     14.512721     14.512721     29.025442
     -4.649650     13.152630     13.152630     26.305259
     -4.639640     13.173461     13.173461     26.346922
     -4.629630     15.062049     15.062049     30.124098
     -4.619620     19.099826     19.099826     38.199652
     -4.609610     25.172507     25.172507     50.345014
     -4.599600     32.664311     32.664311     65.328622
     -4.589590     40.510931     40.510931     81.021862
     -4.579580     47.437120     47.437120     94.874240
     -4.569570     52.323148     52.323148    104.646297
     -4.559560     54.566545     54.566545    109.133089
     -4.549550     54.282344     54.282344    108.564688
     -4.539540     52.243098     52.243098    104.486196
     -4.529530     49.575041     49.575041     99.150081
     -4.519520     47.337277     47.337277     94.674555
     -4.509510     46.158269     46.158269     92.316539
     -4.499499     46.068633     46.068633     92.137265
     -4.489489     46.575983     46.575983     93.151967
     -4.479479     46.924628     46.924628     93.849256
     -4.469469     46.415677     46.415677     92.831354
     -4.459459     44.655675     44.655675     89.311350
     -4.449449     41.650526     41.650526     83.301051
     -4.439439     37.739495     37.739495     75.478990
     -4.429429     33.433415     33.433415     66.866830
     -4.419419     29.249653     29.249653     58.499306
     -4.409409     25.613150     25.613150     51.226300
     -4.399399     22.835926     22.835926     45.671852
     -4.389389     21.135031     21.135031     42.270061
     -4.379379     20.635568     20.635568     41.271137
     -4.369369     21.337210     21.337210     42.674420
     -4.359359     23.071467     23.071467     46.142934
     -4.349349     25.502244     25.502244     51.004488
     -4.339339     28.202481     28.202481     56.404962
     -4.329329     30.789515     30.789515     61.579030
     -4.319319     33.057963     33.057963     66.115925
     -4.309309     35.041337     35.041337     70.082674
     -4.299299     36.964971     36.964971     73.929942
     -4.289289     39.102522     39.102522     78.205043
     -4.279279     41.591448     41.591448     83.182897
     -4.269269     44.284547     44.284547     88.569094
     -4.259259     46.709818     46.709818     93.419636
     -4.249249     48.177782     48.177782     96.355565
     -4.239239     48.017218     48.017218     96.034435
     -4.229229     45.855074     45.855074     91.710149
     -4.219219     41.818167     41.818167     83.636334
     -4.209209     36.554107     36.554107     73.108214
     -4.199199     31.047507     31.047507     62.095013
     -4.189189     26.305525     26.305525     52.611050
     -4.179179     23.048680     23.048680     46.097360
     -4.169169     21.534449     21.534449     43.068899
     -4.159159     21.571922     21.571922     43.143845
     -4.149149     22.697094     22.697094     45.394188
     -4.139139     24.413948     24.413948     48.827895
     -4.129129     26.389108     26.389108     52.778215
     -4.119119     28.517141     28.517141     57.034281
     -4.109109     30.835330     30.835330     61.670660
     -4.099099     33.339609     33.339609     66.679217
     -4.089089     35.808962     35.808962     71.617925
     -4.079079     37.752870     37.752870     75.505741
     -4.069069     38.539289     38.539289     77.078578
     -4.059059     37.659711     37.659711     75.319421
     -4.049049     34.999981     34.999981     69.999962
     -4.039039     30.970147     30.970147     61.940294
     -4.029029     26.419148     26.419148     52.838296
     -4.019019     22.375624     22.375624     44.751248
     -4.009009     19.740834     19.740834     39.481669
     -3.998999     19.065871     19.065871     38.131741
     -3.988989     20.481649     20.481649     40.963299
     -3.978979     23.766640     23.766640     47.533280
     -3.968969     28.484767     28.484767     56.969533
     -3.958959     34.123958     34.123958     68.247917
     -3.948949     40.198528     40.198528     80.397057
     -3.938939     46.313018     46.313018     92.626037
     -3.928929     52.196745     52.196745    104.393490
     -3.918919     57.707079     57.707079    115.414158
     -3.908909     62.787392     62.787392    125.574785
     -3.898899     67.375333     67.375333    134.750666
     -3.888889     71.289851     71.289851    142.579702
     -3.878879     74.156751     74.156751    148.313503
     -3.868869     75.432414     75.432414    150.864829
     -3.858859     74.544318     74.544318    149.088636
     -3.848849     71.105729     71.105729    142.211458
     -3.838839     65.116862     65.116862    130.233723
     -3.828829     57.062514     57.062514    114.125027
     -3.818819     47.857483     47.857483     95.714967
     -3.808809     38.652945     38.652945     77.305889
     -3.798799     30.568926     30.568926     61.137853
     -3.788789     24.439156     24.439156     48.878311
     -3.778779     20.641977     20.641977     41.283953
     -3.768769     19.056773     19.056773     38.113547
     -3.758759     19.146216     19.146216     38.292433
     -3.748749     20.133426     20.133426     40.266852
     -3.738739     21.224994     21.224994     42.449988
     -3.728729     21.825214     21.825214     43.650428
     -3.718719     21.691239     21.691239     43.382478
     -3.708709     20.991021     20.991021     41.982042
     -3.698699     20.244857     20.244857     40.489714
     -3.688689     20.157159     20.157159     40.314318
     -3.678679     21.376109     21.376109     42.752219
     -3.668669     24.248800     24.248800     48.497600
     -3.658659     28.655203     28.655203     57.310406
     -3.648649     33.990554     33.990554     67.981109
     -3.638639     39.316635     39.316635     78.633270
     -3.628629     43.633040     43.633040     87.266080
     -3.618619     46.164582     46.164582     92.329164
     -3.608609     46.554813     46.554813     93.109626
     -3.598599     44.905059     44.905059     89.810119
     -3.588589     41.672884     41.672884     83.345768
     -3.578579     37.497086     37.497086     74.994173
     -3.568569     33.022007     33.022007     66.044015
     -3.558559     28.764330     28.764330     57.528660
     -3.548549     25.034696     25.034696     50.069393
     -3.538539     21.915745     21.915745     43.831490
     -3.528529     19.300202     19.300202     38.600405
     -3.518519     16.986157     16.986157     33.972313
     -3.508509     14.804164     14.804164     29.608328
     -3.498498     12.728209     12.728209     25.456417
     -3.488488     10.921805     10.921805     21.843610
     -3.478478      9.696734      9.696734     19.393468
     -3.468468      9.398869      9.398869     18.797739
     -3.458458     10.262478     10.262478     20.524956
     -3.448448     12.283325     12.283325     24.566650
     -3.438438     15.156707     15.156707     30.313415
     -3.428428     18.313370     18.313370     36.626740
     -3.418418     21.060761     21.060761     42.121522
     -3.408408     22.797108     22.797108     45.594216
     -3.398398     23.224689     23.224689     46.449377
     -3.388388     22.473233     22.473233     44.946465
     -3.378378     21.074211     21.074211     42.148421
     -3.368368     19.792146     19.792146     39.584292
     -3.358358     19.382655     19.382655     38.765309
     -3.348348     20.370085     20.370085     40.740170
     -3.338338     22.910943     22.910943     45.821885
     -3.328328     26.758953     26.758953     53.517907
     -3.318318     31.312751     31.312751     62.625502
     -3.308308     35.726029     35.726029     71.452057
     -3.298298     39.075419     39.075419     78.150838
     -3.288288     40.578977     40.578977     81.157954
     -3.278278     39.823352     39.823352     79.646704
     -3.268268     36.916008     36.916008     73.832017
     -3.258258     32.476539     32.476539     64.953078
     -3.248248     27.440907     27.440907     54.881815
     -3.238238     22.746078     22.746078     45.492156
     -3.228228     19.029228     19.029228     38.058456
     -3.218218     16.470207     16.470207     32.940413
     -3.208208     14.832054     14.832054     29.664108
     -3.198198     13.658707     13.658707     27.317414
     -3.188188     12.525100     12.525100     25.050200
     -3.178178     11.230162     11.230162     22.460325
     -3.168168      9.868843      9.868843     19.737686
     -3.158158      8.781904      8.781904     17.563808
     -3.148148      8.427022      8.427022     16.854044
     -3.138138      9.225495      9.225495     18.450990
     -3.128128     11.424433     11.424433     22.848865
     -3.118118     14.997012     14.997012     29.994023
     -3.108108     19.598603     19.598603     39.197207
     -3.098098     24.599557     24.599557     49.199114
     -3.088088     29.207609     29.207609     58.415218
     -3.078078     32.662367     32.662367     65.324733
     -3.068068     34.442129     34.442129     68.884259
     -3.058058     34.399689     34.399689     68.799379
     -3.048048     32.764716     32.764716     65.529432
     -3.038038     30.013100     30.013100     60.026201
     -3.028028     26.672708     26.672708     53.345415
     -3.018018     23.165280     23.165280     46.330560
     -3.008008     19.754961     19.754961     39.509923
     -2.997998     16.605494     16.605494     33.210988
     -2.987988     13.886741     13.886741     27.773482
     -2.977978     11.853563     11.853563     23.707127
     -2.967968     10.848506     10.848506     21.697013
     -2.957958     11.226727     11.226727     22.453454
     -2.947948     13.236727     13.236727     26.473455
     -2.937938     16.902236     16.902236     33.804472
     -2.927928     21.946306     21.946306     43.892612
     -2.917918     27.788549     27.788549     55.577099
     -2.907908     33.631562     33.631562     67.263125
     -2.897898     38.628274     38.628274     77.256548
     -2.887888     42.089293     42.089293     84.178586
     -2.877878     43.661803     43.661803     87.323606
     -2.867868     43.408426     43.408426     86.816852
     -2.857858     41.746681     41.746681     83.493361
     -2.847848     39.268304     39.268304     78.536608
     -2.837838     36.514912     36.514912     73.029824
     -2.827828     33.809659     33.809659     67.619317
     -2.817818     31.216860     31.216860     62.433720
     -2.807808     28.634936     28.634936     57.269872
     -2.797798     25.958774     25.958774     51.917548
     -2.787788     23.215114     23.215114     46.430228
     -2.777778     20.597046     20.597046     41.194092
     -2.767768     18.387005     18.387005     36.774010
     -2.757758     16.823829     16.823829     33.647658
     -2.747748     15.999402     15.999402     31.998804
     -2.737738     15.846770     15.846770     31.693541
     -2.727728     16.219326     16.219326     32.438652
     -2.717718     16.999401     16.999401     33.998801
     -2.707708     18.155406     18.155406     36.310813
     -2.697698     19.704747     19.704747     39.409494
     -2.687688     21.611236     21.611236     43.222473
     -2.677678     23.700326     23.700326     47.400652
     -2.667668     25.670567     25.670567     51.341135
     -2.657658     27.213996     27.213996     54.427991
     -2.647648     28.176486     28.176486     56.352971
     -2.637638     28.652229     28.652229     57.304458
     -2.627628     28.944274     28.944274     57.888548
     -2.617618     29.409802     29.409802     58.819603
     -2.607608     30.281385     30.281385     60.562769
     -2.597598     31.562596     31.562596     63.125192
     -2.587588     33.038434     33.038434     66.076868
     -2.577578     34.367295     34.367295     68.734591
     -2.567568     35.187226     35.187226     70.374453
     -2.557558     35.191451     35.191451     70.382903
     -2.547548     34.175302     34.175302     68.350604
     -2.537538     32.081570     32.081570     64.163140
     -2.527528     29.054252     29.054252     58.108505
     -2.517518     25.473537     25.473537     50.947074
     -2.507508     21.927184     21.927184     43.854368
     -2.497497     19.095348     19.095348     38.190696
     -2.487487     17.572968     17.572968     35.145935
     -2.477477     17.693410     17.693410     35.386820
     -2.467467     19.425033     19.425033     38.850065
     -2.457457     22.386330     22.386330     44.772659
     -2.447447     25.979242     25.979242     51.958485
     -2.437437     29.592545     29.592545     59.185090
     -2.427427     32.795543     32.795543     65.591087
     -2.417417     35.440753     35.440753     70.881505
     -2.407407     37.628514     37.628514     75.257027
     -2.397397     39.547528     39.547528     79.095057
     -2.387387     41.268095     41.268095     82.536189
     -2.377377     42.597367     42.597367     85.194734
     -2.367367     43.085093     43.085093     86.170186
     -2.357357     42.195872     42.195872     84.391744
     -2.347347     39.573506     39.573506     79.147012
     -2.337337     35.266285     35.266285     70.532570
     -2.327327     29.797230     29.797230     59.594460
     -2.317317     24.044498     24.044498     48.088996
     -2.307307     18.993827     18.993827     37.987654
     -2.297297     15.477601     15.477601     30.955202
     -2.287287     13.999140     13.999140     27.998279
     -2.277277     14.679569     14.679569     29.359138
     -2.267267     17.304550     17.304550     34.609100
     -2.257257     21.420836     21.420836     42.841672
     -2.247247     26.438937     26.438937     52.877875
     -2.237237     31.719127     31.719127     63.438255
     -2.227227     36.636267     36.636267     73.272533
     -2.217217     40.628694     40.628694     81.257389
     -2.207207     43.240203     43.240203     86.480405
     -2.197197     44.163993     44.163993     88.327987
     -2.187187     43.291542     43.291542     86.583085
     -2.177177     40.755521     40.755521     81.511043
     -2.167167     36.939695     36.939695     73.879389
     -2.157157     32.424481     32.424481     64.848963
     -2.147147     27.857983     27.857983     55.715965
     -2.137137     23.784906     23.784906     47.569811
     -2.127127     20.503662     20.503662     41.007324
     -2.117117     18.022822     18.022822     36.045644
     -2.107107     16.141797     16.141797     32.283595
     -2.097097     14.612174     14.612174     29.224348
     -2.087087     13.290089     13.290089     26.580177
     -2.077077     12.197552     12.197552     24.395103
     -2.067067     11.466635     11.466635     22.933269
     -2.057057     11.208916     11.208916     22.417832
     -2.047047     11.392470     11.392470     22.784940
     -2.037037     11.799545     11.799545     23.599091
     -2.027027     12.089209     12.089209     24.178417
     -2.017017     11.930615     11.930615     23.861230
     -2.007007     11.136918     11.136918     22.273836
     -1.996997      9.734860      9.734860     19.469719
     -1.986987      7.944682      7.944682     15.889364
     -1.976977      6.093357      6.093357     12.186714
     -1.966967      4.512405      4.512405      9.024810
     -1.956957      3.466236      3.466236      6.932473
     -1.946947      3.127120      3.127120      6.254240
     -1.936937      3.581660      3.581660      7.163320
     -1.926927      4.840819      4.840819      9.681638
     -1.916917      6.835593      6.835593     13.671186
     -1.906907      9.402132      9.402132     18.804264
     -1.896897     12.276360     12.276360     24.552720
     -1.886887     15.117778     15.117778     30.235556
     -1.876877     17.566874     17.566874     35.133749
     -1.866867     19.321965     19.321965     38.643929
     -1.856857     20.210949     20.210949     40.421899
     -1.846847     20.234476     20.234476     40.468951
     -1.836837     19.564487     19.564487     39.128974
     -1.826827     18.492145     18.492145     36.984289
     -1.816817     17.333105     17.333105     34.666210
     -1.806807     16.317478     16.317478     32.634955
     -1.796797     15.508329     15.508329     31.016658
     -1.786787     14.790322     14.790322     29.580643
     -1.776777     13.940596     13.940596     27.881192
     -1.766767     12.750066     12.750066     25.500132
     -1.756757     11.133761     11.133761     22.267523
     -1.746747      9.175944      9.175944     18.351888
     -1.736737      7.095496      7.095496     14.190991
     -1.726727      5.161778      5.161778     10.323556
     -1.716717      3.611582      3.611582      7.223165
     -1.706707      2.604584      2.604584      5.209167
     -1.696697      2.222317      2.222317      4.444634
     -1.686687      2.487866      2.487866      4.975731
     -1.676677      3.376507      3.376507      6.753013
     -1.666667      4.802423      4.802423      9.604846
     -1.656657      6.591742      6.591742     13.183484
     -1.646647      8.471211      8.471211     16.942423
     -1.636637     10.101693     10.101693     20.203386
     -1.626627     11.163727     11.163727     22.327454
