# EIG2DOS: Utility for SIESTA to obtain the electronic density of states
#  E. Artacho, Apr 1999, A. Garcia, Apr 2012
#  Nick R. Papior, Feb 2017
# ------------------------------------------
# Eigenvalues calculated from a non-polarized calculation
# Eigenvalues read from siesta.EIG
# Kpoint weights read from siesta.KP
# Using smearing parameter:   0.0500
# Using 1000 points in the energy range
# Selected bands: 1 to: 2981
# Emin, Emax in file for selected band(s):    -27.2779545    218.4035140
# Nbands, Nspin, Nk   =   2981     1     1
# E_F                 =    -4.1884 eV --> (shifted to ZERO)
# Broadening          =     0.0500 eV
#
#        E            N(up)  (=)   N(down)         Ntot
     -5.000000     31.560197     31.560197     63.120395
     -4.989990     36.900197     36.900197     73.800393
     -4.979980     41.967214     41.967214     83.934428
     -4.969970     45.858680     45.858680     91.717361
     -4.959960     47.819209     47.819209     95.638417
     -4.949950     47.495089     47.495089     94.990178
     -4.939940     45.056895     45.056895     90.113790
     -4.929930     41.155880     41.155880     82.311759
     -4.919920     36.755824     36.755824     73.511648
     -4.909910     32.916822     32.916822     65.833644
     -4.899900     30.589510     30.589510     61.179019
     -4.889890     30.438418     30.438418     60.876835
     -4.879880     32.695286     32.695286     65.390571
     -4.869870     37.062669     37.062669     74.125339
     -4.859860     42.718038     42.718038     85.436075
     -4.849850     48.465518     48.465518     96.931036
     -4.839840     53.028884     53.028884    106.057768
     -4.829830     55.402549     55.402549    110.805099
     -4.819820     55.129947     55.129947    110.259895
     -4.809810     52.398023     52.398023    104.796047
     -4.799800     47.916709     47.916709     95.833418
     -4.789790     42.647978     42.647978     85.295956
     -4.779780     37.507175     37.507175     75.014351
     -4.769770     33.151928     33.151928     66.303856
     -4.759760     29.913161     29.913161     59.826322
     -4.749750     27.848018     27.848018     55.696035
     -4.739740     26.845845     26.845845     53.691689
     -4.729730     26.714561     26.714561     53.429122
     -4.719720     27.209072     27.209072     54.418145
     -4.709710     28.013377     28.013377     56.026753
     -4.699700     28.726591     28.726591     57.453182
     -4.689690     28.908171     28.908171     57.816343
     -4.679680     28.202388     28.202388     56.404776
     -4.669670     26.504476     26.504476     53.008951
     -4.659660     24.087454     24.087454     48.174908
     -4.649650     21.610584     21.610584     43.221167
     -4.639640     19.978513     19.978513     39.957025
     -4.629630     20.084487     20.084487     40.168974
     -4.619620     22.517294     22.517294     45.034587
     -4.609610     27.326217     27.326217     54.652434
     -4.599600     33.927059     33.927059     67.854119
     -4.589590     41.200986     41.200986     82.401972
     -4.579580     47.783898     47.783898     95.567796
     -4.569570     52.470954     52.470954    104.941907
     -4.559560     54.596481     54.596481    109.192963
     -4.549550     54.236620     54.236620    108.473240
     -4.539540     52.143816     52.143816    104.287632
     -4.529530     49.436141     49.436141     98.872281
     -4.519520     47.171477     47.171477     94.342953
     -4.509510     45.981011     45.981011     91.962022
     -4.499499     45.899819     45.899819     91.799638
     -4.489489     46.439184     46.439184     92.878368
     -4.479479     46.843428     46.843428     93.686855
     -4.469469     46.407832     46.407832     92.815663
     -4.459459     44.727044     44.727044     89.454089
     -4.449449     41.791417     41.791417     83.582834
     -4.439439     37.925487     37.925487     75.850974
     -4.429429     33.631044     33.631044     67.262088
     -4.419419     29.425252     29.425252     58.850504
     -4.409409     25.741690     25.741690     51.483380
     -4.399399     22.906612     22.906612     45.813223
     -4.389389     21.151767     21.151767     42.303535
     -4.379379     20.612593     20.612593     41.225186
     -4.369369     21.292124     21.292124     42.584248
     -4.359359     23.018746     23.018746     46.037492
     -4.349349     25.449688     25.449688     50.899376
     -4.339339     28.151462     28.151462     56.302923
     -4.329329     30.738045     30.738045     61.476090
     -4.319319     33.004463     33.004463     66.008927
     -4.309309     34.986987     34.986987     69.973973
     -4.299299     36.913632     36.913632     73.827265
     -4.289289     39.058815     39.058815     78.117630
     -4.279279     41.558596     41.558596     83.117192
     -4.269269     44.263557     44.263557     88.527115
     -4.259259     46.700461     46.700461     93.400921
     -4.249249     48.180503     48.180503     96.361006
     -4.239239     48.034535     48.034535     96.069069
     -4.229229     45.891447     45.891447     91.782894
     -4.219219     41.878323     41.878323     83.756646
     -4.209209     36.640634     36.640634     73.281267
     -4.199199     31.158679     31.158679     62.317358
     -4.189189     26.434074     26.434074     52.868148
     -4.179179     23.181856     23.181856     46.363713
     -4.169169     21.655536     21.655536     43.311073
     -4.159159     21.663094     21.663094     43.326187
     -4.149149     22.743078     22.743078     45.486157
     -4.139139     24.405519     24.405519     48.811038
     -4.129129     26.325351     26.325351     52.650703
     -4.119119     28.405889     28.405889     56.811777
     -4.109109     30.691825     30.691825     61.383651
     -4.099099     33.183899     33.183899     66.367799
     -4.089089     35.662566     35.662566     71.325132
     -4.079079     37.635192     37.635192     75.270385
     -4.069069     38.464351     38.464351     76.928703
     -4.059059     37.633965     37.633965     75.267930
     -4.049049     35.021884     35.021884     70.043768
     -4.039039     31.031566     31.031566     62.063132
     -4.029029     26.507816     26.507816     53.015631
     -4.019019     22.477401     22.477401     44.954801
     -4.009009     19.840954     19.840954     39.681908
     -3.998999     19.149369     19.149369     38.298738
     -3.988989     20.533991     20.533991     41.067982
     -3.978979     23.775460     23.775460     47.550921
     -3.968969     28.442654     28.442654     56.885307
     -3.958959     34.031061     34.031061     68.062123
     -3.948949     40.063474     40.063474     80.126947
     -3.938939     46.151382     46.151382     92.302764
     -3.928929     52.027657     52.027657    104.055314
     -3.918919     57.549444     57.549444    115.098889
     -3.908909     62.657118     62.657118    125.314237
     -3.898899     67.284068     67.284068    134.568137
     -3.888889     71.244774     71.244774    142.489548
     -3.878879     74.160559     74.160559    148.321118
     -3.868869     75.483010     75.483010    150.966021
     -3.858859     74.634369     74.634369    149.268739
     -3.848849     71.222777     71.222777    142.445554
     -3.838839     65.244655     65.244655    130.489310
     -3.828829     57.183688     57.183688    114.367376
     -3.818819     47.956936     47.956936     95.913871
     -3.808809     38.720766     38.720766     77.441531
     -3.798799     30.601861     30.601861     61.203722
     -3.788789     24.440255     24.440255     48.880510
     -3.778779     20.618887     20.618887     41.237774
     -3.768769     19.019530     19.019530     38.039060
     -3.758759     19.105247     19.105247     38.210495
     -3.748749     20.098042     20.098042     40.196085
     -3.738739     21.202304     21.202304     42.404609
     -3.728729     21.819362     21.819362     43.638724
     -3.718719     21.703021     21.703021     43.406043
     -3.708709     21.018027     21.018027     42.036055
     -3.698699     20.282198     20.282198     40.564396
     -3.688689     20.198604     20.198604     40.397208
     -3.678679     21.415287     21.415287     42.830574
     -3.668669     24.280154     24.280154     48.560307
     -3.658659     28.674596     28.674596     57.349191
     -3.648649     33.995658     33.995658     67.991316
     -3.638639     39.307261     39.307261     78.614523
     -3.628629     43.611381     43.611381     87.222762
     -3.618619     46.135075     46.135075     92.270150
     -3.608609     46.523344     46.523344     93.046689
     -3.598599     44.877503     44.877503     89.755005
     -3.588589     41.653451     41.653451     83.306903
     -3.578579     37.487206     37.487206     74.974412
     -3.568569     33.020222     33.020222     66.040445
     -3.558559     28.767060     28.767060     57.534119
     -3.548549     25.036851     25.036851     50.073703
     -3.538539     21.909548     21.909548     43.819095
     -3.528529     19.270246     19.270246     38.540492
     -3.518519     16.898832     16.898832     33.797664
     -3.508509     14.590374     14.590374     29.180749
     -3.498498     12.260547     12.260547     24.521094
     -3.488488      9.991950      9.991950     19.983901
     -3.478478      8.005434      8.005434     16.010868
     -3.468468      6.576377      6.576377     13.152753
     -3.458458      5.935898      5.935898     11.871796
     -3.448448      6.193578      6.193578     12.387156
     -3.438438      7.302510      7.302510     14.605020
     -3.428428      9.073376      9.073376     18.146752
     -3.418418     11.234547     11.234547     22.469093
     -3.408408     13.523210     13.523210     27.046419
     -3.398398     15.776362     15.776362     31.552724
     -3.388388     17.981318     17.981318     35.962636
     -3.378378     20.258309     20.258309     40.516618
     -3.368368     22.782706     22.782706     45.565411
     -3.358358     25.688825     25.688825     51.377651
     -3.348348     29.002912     29.002912     58.005824
     -3.338338     32.623338     32.623338     65.246675
     -3.328328     36.327645     36.327645     72.655289
     -3.318318     39.776091     39.776091     79.552181
     -3.308308     42.511297     42.511297     85.022595
     -3.298298     43.993089     43.993089     87.986178
     -3.288288     43.710010     43.710010     87.420021
     -3.278278     41.358182     41.358182     82.716364
     -3.268268     37.010610     37.010610     74.021220
     -3.258258     31.176281     31.176281     62.352562
     -3.248248     24.697181     24.697181     49.394361
     -3.238238     18.520874     18.520874     37.041748
     -3.228228     13.450870     13.450870     26.901741
     -3.218218      9.974271      9.974271     19.948541
     -3.208208      8.209281      8.209281     16.418561
     -3.198198      7.953991      7.953991     15.907983
     -3.188188      8.792163      8.792163     17.584326
     -3.178178     10.222100     10.222100     20.444200
     -3.168168     11.792136     11.792136     23.584273
     -3.158158     13.225564     13.225564     26.451129
     -3.148148     14.500971     14.500971     29.001942
     -3.138138     15.845414     15.845414     31.690827
     -3.128128     17.619688     17.619688     35.239376
     -3.118118     20.124727     20.124727     40.249455
     -3.108108     23.407921     23.407921     46.815842
     -3.098098     27.163707     27.163707     54.327414
     -3.088088     30.787635     30.787635     61.575271
     -3.078078     33.570859     33.570859     67.141719
     -3.068068     34.950019     34.950019     69.900038
     -3.058058     34.696611     34.696611     69.393222
     -3.048048     32.960598     32.960598     65.921197
     -3.038038     30.160486     30.160486     60.320971
     -3.028028     26.792207     26.792207     53.584414
     -3.018018     23.264203     23.264203     46.528406
     -3.008008     19.836625     19.836625     39.673250
     -2.997998     16.671518     16.671518     33.343036
     -2.987988     13.936273     13.936273     27.872547
     -2.977978     11.882638     11.882638     23.765276
     -2.967968     10.850968     10.850968     21.701935
     -2.957958     11.196599     11.196599     22.393198
     -2.947948     13.171121     13.171121     26.342241
     -2.937938     16.803767     16.803767     33.607535
     -2.927928     21.824190     21.824190     43.648379
     -2.917918     27.657817     27.657817     55.315633
     -2.907908     33.510313     33.510313     67.020625
     -2.897898     38.533511     38.533511     77.067022
     -2.887888     42.032615     42.032615     84.065230
     -2.877878     43.646552     43.646552     87.293104
     -2.867868     43.429557     43.429557     86.859114
     -2.857858     41.793515     41.793515     83.587029
     -2.847848     39.328988     39.328988     78.657977
     -2.837838     36.580553     36.580553     73.161106
     -2.827828     33.876266     33.876266     67.752532
     -2.817818     31.284455     31.284455     62.568910
     -2.807808     28.704715     28.704715     57.409429
     -2.797798     26.030200     26.030200     52.060400
     -2.787788     23.284665     23.284665     46.569331
     -2.777778     20.659240     20.659240     41.318479
     -2.767768     18.436971     18.436971     36.873941
     -2.757758     16.859873     16.859873     33.719746
     -2.747748     16.024113     16.024113     32.048226
     -2.737738     15.866084     15.866084     31.732167
     -2.727728     16.240067     16.240067     32.480134
     -2.717718     17.026547     17.026547     34.053094
     -2.707708     18.190294     18.190294     36.380587
     -2.697698     19.744811     19.744811     39.489622
     -2.687688     21.651104     21.651104     43.302208
     -2.677678     23.733582     23.733582     47.467164
     -2.667668     25.691539     25.691539     51.383078
     -2.657658     27.219174     27.219174     54.438349
     -2.647648     28.165454     28.165454     56.330908
     -2.637638     28.627975     28.627975     57.255950
     -2.627628     28.912707     28.912707     57.825414
     -2.617618     29.378380     29.378380     58.756761
     -2.607608     30.257094     30.257094     60.514188
     -2.597598     31.549957     31.549957     63.099913
     -2.587588     33.038371     33.038371     66.076742
     -2.577578     34.377370     34.377370     68.754741
     -2.567568     35.203056     35.203056     70.406111
     -2.557558     35.208514     35.208514     70.417029
     -2.547548     34.190214     34.190214     68.380428
     -2.537538     32.092314     32.092314     64.184629
     -2.527528     29.059542     29.059542     58.119084
     -2.517518     25.471954     25.471954     50.943908
     -2.507508     21.916808     21.916808     43.833616
     -2.497497     19.074222     19.074222     38.148445
     -2.487487     17.540248     17.540248     35.080495
     -2.477477     17.650583     17.650583     35.301165
     -2.467467     19.376381     19.376381     38.752761
     -2.457457     22.338013     22.338013     44.676026
     -2.447447     25.936977     25.936977     51.873953
     -2.437437     29.558730     29.558730     59.117460
     -2.427427     32.767372     32.767372     65.534745
     -2.417417     35.410773     35.410773     70.821546
     -2.407407     37.588080     37.588080     75.176159
     -2.397397     39.491940     39.491940     78.983879
     -2.387387     41.200888     41.200888     82.401777
     -2.377377     42.531164     42.531164     85.062329
     -2.367367     43.037911     43.037911     86.075823
     -2.357357     42.184210     42.184210     84.368421
     -2.347347     39.605375     39.605375     79.210749
     -2.337337     35.337475     35.337475     70.674950
     -2.327327     29.892385     29.892385     59.784771
     -2.317317     24.142065     24.142065     48.284130
     -2.307307     19.072262     19.072262     38.144523
     -2.297297     15.520244     15.520244     31.040487
     -2.287287     13.996520     13.996520     27.993039
     -2.277277     14.629533     14.629533     29.259066
     -2.267267     17.211405     17.211405     34.422811
     -2.257257     21.294475     21.294475     42.588951
     -2.247247     26.294070     26.294070     52.588140
     -2.237237     31.574080     31.574080     63.148160
     -2.227227     36.510763     36.510763     73.021527
     -2.217217     40.540616     40.540616     81.081232
     -2.207207     43.202059     43.202059     86.404117
     -2.197197     44.180227     44.180227     88.360455
     -2.187187     43.357564     43.357564     86.715128
     -2.177177     40.858723     40.858723     81.717447
     -2.167167     37.062035     37.062035     74.124070
     -2.157157     32.545608     32.545608     65.091216
     -2.147147     27.957243     27.957243     55.914486
     -2.137137     23.839869     23.839869     47.679737
     -2.127127     20.482406     20.482406     40.964813
     -2.117117     17.868149     17.868149     35.736297
     -2.107107     15.748710     15.748710     31.497420
     -2.097097     13.805888     13.805888     27.611776
     -2.087087     11.819209     11.819209     23.638417
     -2.077077      9.761987      9.761987     19.523974
     -2.067067      7.795835      7.795835     15.591669
     -2.057057      6.187620      6.187620     12.375241
     -2.047047      5.200162      5.200162     10.400323
     -2.037037      5.000258      5.000258     10.000516
     -2.027027      5.603026      5.603026     11.206052
     -2.017017      6.853836      6.853836     13.707672
     -2.007007      8.447506      8.447506     16.895011
     -1.996997      9.988481      9.988481     19.976963
     -1.986987     11.089806     11.089806     22.179611
     -1.976977     11.489205     11.489205     22.978411
     -1.966967     11.141355     11.141355     22.282709
     -1.956957     10.244875     10.244875     20.489750
     -1.946947      9.186790      9.186790     18.373581
     -1.936937      8.422848      8.422848     16.845696
     -1.926927      8.338039      8.338039     16.676078
     -1.916917      9.135142      9.135142     18.270284
     -1.906907     10.783142     10.783142     21.566284
     -1.896897     13.033933     13.033933     26.067867
     -1.886887     15.495191     15.495191     30.990381
     -1.876877     17.734366     17.734366     35.468732
     -1.866867     19.384645     19.384645     38.769290
     -1.856857     20.227532     20.227532     40.455065
     -1.846847     20.235113     20.235113     40.470225
     -1.836837     19.563266     19.563266     39.126532
     -1.826827     18.494458     18.494458     36.988915
     -1.816817     17.339723     17.339723     34.679447
     -1.806807     16.326965     16.326965     32.653930
     -1.796797     15.518620     15.518620     31.037241
     -1.786787     14.799702     14.799702     29.599403
     -1.776777     13.948119     13.948119     27.896239
     -1.766767     12.755516     12.755516     25.511032
     -1.756757     11.137347     11.137347     22.274693
     -1.746747      9.177934      9.177934     18.355868
     -1.736737      7.095907      7.095907     14.191815
     -1.726727      5.160136      5.160136     10.320272
     -1.716717      3.606741      3.606741      7.213483
     -1.706707      2.594666      2.594666      5.189333
     -1.696697      2.204905      2.204905      4.409809
     -1.686687      2.460615      2.460615      4.921230
     -1.676677      3.338243      3.338243      6.676485
     -1.666667      4.754441      4.754441      9.508882
     -1.656657      6.538708      6.538708     13.077415
     -1.646647      8.420911      8.420911     16.841823
     -1.636637     10.063218     10.063218     20.126436
     -1.626627     11.144432     11.144432     22.288864
