# EIG2DOS: Utility for SIESTA to obtain the electronic density of states
#  E. Artacho, Apr 1999, A. Garcia, Apr 2012
#  Nick R. Papior, Feb 2017
# ------------------------------------------
# Eigenvalues calculated from a non-polarized calculation
# Eigenvalues read from siesta.EIG
# Kpoint weights read from siesta.KP
# Using smearing parameter:   0.0500
# Using 1000 points in the energy range
# Selected bands: 1 to: 2981
# Emin, Emax in file for selected band(s):    -27.1758357    218.3813760
# Nbands, Nspin, Nk   =   2981     1     1
# E_F                 =    -4.2162 eV --> (shifted to ZERO)
# Broadening          =     0.0500 eV
#
#        E            N(up)  (=)   N(down)         Ntot
     -5.000000     33.537590     33.537590     67.075181
     -4.989990     38.311084     38.311084     76.622168
     -4.979980     42.501853     42.501853     85.003706
     -4.969970     45.382997     45.382997     90.765993
     -4.959960     46.425304     46.425304     92.850608
     -4.949950     45.473927     45.473927     90.947854
     -4.939940     42.804103     42.804103     85.608206
     -4.929930     39.052525     39.052525     78.105051
     -4.919920     35.074073     35.074073     70.148147
     -4.909910     31.782782     31.782782     63.565563
     -4.899900     30.004875     30.004875     60.009751
     -4.889890     30.336372     30.336372     60.672743
     -4.879880     32.995922     32.995922     65.991844
     -4.869870     37.700828     37.700828     75.401656
     -4.859860     43.635888     43.635888     87.271777
     -4.849850     49.583617     49.583617     99.167233
     -4.839840     54.221885     54.221885    108.443771
     -4.829830     56.502150     56.502150    113.004300
     -4.819820     55.959405     55.959405    111.918810
     -4.809810     52.821064     52.821064    105.642128
     -4.799800     47.872988     47.872988     95.745977
     -4.789790     42.154336     42.154336     84.308671
     -4.779780     36.622482     36.622482     73.244964
     -4.769770     31.920193     31.920193     63.840386
     -4.759760     28.305723     28.305723     56.611447
     -4.749750     25.722938     25.722938     51.445877
     -4.739740     23.938601     23.938601     47.877201
     -4.729730     22.672127     22.672127     45.344254
     -4.719720     21.674065     21.674065     43.348129
     -4.709710     20.748867     20.748867     41.497734
     -4.699700     19.747475     19.747475     39.494949
     -4.689690     18.566665     18.566665     37.133330
     -4.679680     17.181671     17.181671     34.363343
     -4.669670     15.710507     15.710507     31.421014
     -4.659660     14.477138     14.477138     28.954277
     -4.649650     14.024309     14.024309     28.048618
     -4.639640     15.035465     15.035465     30.070930
     -4.629630     18.155840     18.155840     36.311680
     -4.619620     23.745372     23.745372     47.490743
     -4.609610     31.639790     31.639790     63.279580
     -4.599600     41.025220     41.025220     82.050440
     -4.589590     50.522182     50.522182    101.044365
     -4.579580     58.508322     58.508322    117.016644
     -4.569570     63.598689     63.598689    127.197377
     -4.559560     65.103308     65.103308    130.206616
     -4.549550     63.262034     63.262034    126.524068
     -4.539540     59.143722     59.143722    118.287445
     -4.529530     54.248832     54.248832    108.497664
     -4.519520     49.986243     49.986243     99.972487
     -4.509510     47.236874     47.236874     94.473748
     -4.499499     46.157546     46.157546     92.315093
     -4.489489     46.262078     46.262078     92.524155
     -4.479479     46.704790     46.704790     93.409581
     -4.469469     46.629689     46.629689     93.259377
     -4.459459     45.450606     45.450606     90.901212
     -4.449449     42.980603     42.980603     85.961205
     -4.439439     39.403573     39.403573     78.807146
     -4.429429     35.144052     35.144052     70.288105
     -4.419419     30.716846     30.716846     61.433692
     -4.409409     26.619025     26.619025     53.238050
     -4.399399     23.279313     23.279313     46.558626
     -4.389389     21.036586     21.036586     42.073173
     -4.379379     20.109190     20.109190     40.218380
     -4.369369     20.544182     20.544182     41.088363
     -4.359359     22.175517     22.175517     44.351034
     -4.349349     24.637319     24.637319     49.274638
     -4.339339     27.455795     27.455795     54.911590
     -4.329329     30.195809     30.195809     60.391618
     -4.319319     32.599773     32.599773     65.199546
     -4.309309     34.653811     34.653811     69.307622
     -4.299299     36.549109     36.549109     73.098219
     -4.289289     38.552881     38.552881     77.105763
     -4.279279     40.839203     40.839203     81.678406
     -4.269269     43.344696     43.344696     86.689391
     -4.259259     45.709489     45.709489     91.418977
     -4.249249     47.342323     47.342323     94.684647
     -4.239239     47.607957     47.607957     95.215914
     -4.229229     46.079878     46.079878     92.159756
     -4.219219     42.754894     42.754894     85.509788
     -4.209209     38.122633     38.122633     76.245265
     -4.199199     33.039603     33.039603     66.079206
     -4.189189     28.451690     28.451690     56.903380
     -4.179179     25.086968     25.086968     50.173936
     -4.169169     23.254789     23.254789     46.509578
     -4.159159     22.830060     22.830060     45.660121
     -4.149149     23.409263     23.409263     46.818525
     -4.139139     24.547940     24.547940     49.095880
     -4.129129     25.961634     25.961634     51.923267
     -4.119119     27.598266     27.598266     55.196531
     -4.109109     29.553854     29.553854     59.107708
     -4.099099     31.880303     31.880303     63.760607
     -4.089089     34.394082     34.394082     68.788164
     -4.079079     36.606549     36.606549     73.213098
     -4.069069     37.842708     37.842708     75.685417
     -4.059059     37.512434     37.512434     75.024868
     -4.049049     35.402639     35.402639     70.805278
     -4.039039     31.834006     31.834006     63.668012
     -4.029029     27.594490     27.594490     55.188980
     -4.019019     23.683030     23.683030     47.366060
     -4.009009     20.993275     20.993275     41.986550
     -3.998999     20.081576     20.081576     40.163152
     -3.988989     21.097487     21.097487     42.194974
     -3.978979     23.860504     23.860504     47.721008
     -3.968969     28.004042     28.004042     56.008084
     -3.958959     33.105418     33.105418     66.210835
     -3.948949     38.763784     38.763784     77.527569
     -3.938939     44.635417     44.635417     89.270834
     -3.928929     50.452604     50.452604    100.905208
     -3.918919     56.034438     56.034438    112.068876
     -3.908909     61.271597     61.271597    122.543194
     -3.898899     66.065052     66.065052    132.130103
     -3.888889     70.229262     70.229262    140.458524
     -3.878879     73.410469     73.410469    146.820938
     -3.868869     75.084665     75.084665    150.169331
     -3.858859     74.669866     74.669866    149.339732
     -3.848849     71.727635     71.727635    143.455270
     -3.838839     66.174909     66.174909    132.349817
     -3.828829     58.411064     58.411064    116.822128
     -3.818819     49.296112     49.296112     98.592225
     -3.808809     39.976993     39.976993     79.953987
     -3.798799     31.619221     31.619221     63.238442
     -3.788789     25.133539     25.133539     50.267078
     -3.778779     20.981777     20.981777     41.963554
     -3.768769     19.111710     19.111710     38.223421
     -3.758759     19.026668     19.026668     38.053336
     -3.748749     19.959150     19.959150     39.918300
     -3.738739     21.096985     21.096985     42.193970
     -3.728729     21.804966     21.804966     43.609932
     -3.718719     21.790115     21.790115     43.580230
     -3.708709     21.171182     21.171182     42.342363
     -3.698699     20.431633     20.431633     40.863266
     -3.688689     20.260649     20.260649     40.521298
     -3.678679     21.317541     21.317541     42.635082
     -3.668669     23.985341     23.985341     47.970682
     -3.658659     28.196240     28.196240     56.392480
     -3.648649     33.399826     33.399826     66.799652
     -3.638639     38.698406     38.698406     77.396813
     -3.628629     43.105880     43.105880     86.211760
     -3.618619     45.831003     45.831003     91.662006
     -3.608609     46.476573     46.476573     92.953146
     -3.598599     45.091358     45.091358     90.182717
     -3.588589     42.083512     42.083512     84.167024
     -3.578579     38.057551     38.057551     76.115102
     -3.568569     33.644744     33.644744     67.289489
     -3.558559     29.369473     29.369473     58.738946
     -3.548549     25.564652     25.564652     51.129305
     -3.538539     22.339335     22.339335     44.678671
     -3.528529     19.604306     19.604306     39.208611
     -3.518519     17.155451     17.155451     34.310903
     -3.508509     14.792207     14.792207     29.584415
     -3.498498     12.425411     12.425411     24.850822
     -3.488488     10.128462     10.128462     20.256924
     -3.478478      8.112820      8.112820     16.225640
     -3.468468      6.645206      6.645206     13.290413
     -3.458458      5.945424      5.945424     11.890847
     -3.448448      6.101993      6.101993     12.203985
     -3.438438      7.028493      7.028493     14.056986
     -3.428428      8.471051      8.471051     16.942102
     -3.418418     10.069771     10.069771     20.139542
     -3.408408     11.465981     11.465981     22.931963
     -3.398398     12.427983     12.427983     24.855967
     -3.388388     12.949611     12.949611     25.899222
     -3.378378     13.275749     13.275749     26.551497
     -3.368368     13.835390     13.835390     27.670780
     -3.358358     15.103533     15.103533     30.207065
     -3.348348     17.442778     17.442778     34.885556
     -3.338338     20.976444     20.976444     41.952887
     -3.328328     25.522914     25.522914     51.045828
     -3.318318     30.598267     30.598267     61.196533
     -3.308308     35.487028     35.487028     70.974056
     -3.298298     39.381944     39.381944     78.763888
     -3.288288     41.580446     41.580446     83.160892
     -3.278278     41.689377     41.689377     83.378754
     -3.268268     39.754857     39.754857     79.509713
     -3.258258     36.242212     36.242212     72.484423
     -3.248248     31.857233     31.857233     63.714465
     -3.238238     27.288980     27.288980     54.577960
     -3.228228     23.001526     23.001526     46.003053
     -3.218218     19.169252     19.169252     38.338504
     -3.208208     15.760712     15.760712     31.521423
     -3.198198     12.694842     12.694842     25.389684
     -3.188188      9.973078      9.973078     19.946157
     -3.178178      7.732692      7.732692     15.465385
     -3.168168      6.227022      6.227022     12.454043
     -3.158158      5.770774      5.770774     11.541548
     -3.148148      6.679240      6.679240     13.358480
     -3.138138      9.201146      9.201146     18.402291
     -3.128128     13.430357     13.430357     26.860715
     -3.118118     19.199440     19.199440     38.398881
     -3.108108     25.996020     25.996020     51.992041
     -3.098098     32.967773     32.967773     65.935547
     -3.088088     39.063425     39.063425     78.126850
     -3.078078     43.293296     43.293296     86.586591
     -3.068068     45.017443     45.017443     90.034886
     -3.058058     44.133526     44.133526     88.267051
     -3.048048     41.072549     41.072549     82.145097
     -3.038038     36.604820     36.604820     73.209640
     -3.028028     31.555284     31.555284     63.110568
     -3.018018     26.566775     26.566775     53.133549
     -3.008008     22.009199     22.009199     44.018398
     -2.997998     18.042510     18.042510     36.085020
     -2.987988     14.760826     14.760826     29.521652
     -2.977978     12.319110     12.319110     24.638220
     -2.967968     10.975300     10.975300     21.950600
     -2.957958     11.037059     11.037059     22.074117
     -2.947948     12.746480     12.746480     25.492961
     -2.937938     16.152738     16.152738     32.305477
     -2.927928     21.019264     21.019264     42.038528
     -2.917918     26.801351     26.801351     53.602703
     -2.907908     32.715280     32.715280     65.430561
     -2.897898     37.896028     37.896028     75.792056
     -2.887888     41.606787     41.606787     83.213575
     -2.877878     43.432274     43.432274     86.864548
     -2.867868     43.379503     43.379503     86.759005
     -2.857858     41.837831     41.837831     83.675662
     -2.847848     39.408087     39.408087     78.816174
     -2.837838     36.671749     36.671749     73.343498
     -2.827828     34.001732     34.001732     68.003465
     -2.817818     31.496161     31.496161     62.992323
     -2.807808     29.053319     29.053319     58.106639
     -2.797798     26.533296     26.533296     53.066592
     -2.787788     23.910277     23.910277     47.820555
     -2.777778     21.332216     21.332216     42.664433
     -2.767768     19.063436     19.063436     38.126872
     -2.757758     17.355564     17.355564     34.711128
     -2.747748     16.331818     16.331818     32.663635
     -2.737738     15.955846     15.955846     31.911691
     -2.727728     16.097967     16.097967     32.195934
     -2.717718     16.645712     16.645712     33.291425
     -2.707708     17.575676     17.575676     35.151352
     -2.697698     18.931745     18.931745     37.863491
     -2.687688     20.724125     20.724125     41.448249
     -2.677678     22.826530     22.826530     45.653059
     -2.667668     24.958496     24.958496     49.916993
     -2.657658     26.784339     26.784339     53.568679
     -2.647648     28.076302     28.076302     56.152605
     -2.637638     28.837528     28.837528     57.675056
     -2.627628     29.300981     29.300981     58.601962
     -2.617618     29.800739     29.800739     59.601477
     -2.607608     30.594039     30.594039     61.188079
     -2.597598     31.737139     31.737139     63.474279
     -2.587588     33.071637     33.071637     66.143274
     -2.577578     34.301716     34.301716     68.603432
     -2.567568     35.096678     35.096678     70.193357
     -2.557558     35.165954     35.165954     70.331908
     -2.547548     34.301915     34.301915     68.603830
     -2.537538     32.419408     32.419408     64.838817
     -2.527528     29.610212     29.610212     59.220425
     -2.517518     26.190856     26.190856     52.381713
     -2.507508     22.695350     22.695350     45.390701
     -2.497497     19.779075     19.779075     39.558150
     -2.487487     18.048115     18.048115     36.096230
     -2.477477     17.875516     17.875516     35.751031
     -2.467467     19.281747     19.281747     38.563494
     -2.457457     21.933497     21.933497     43.866994
     -2.447447     25.266352     25.266352     50.532705
     -2.437437     28.685102     28.685102     57.370205
     -2.427427     31.760902     31.760902     63.521803
     -2.417417     34.342031     34.342031     68.684061
     -2.407407     36.528565     36.528565     73.057130
     -2.397397     38.520683     38.520683     77.041365
     -2.387387     40.411768     40.411768     80.823536
     -2.377377     42.031837     42.031837     84.063674
     -2.367367     42.932454     42.932454     85.864908
     -2.357357     42.540164     42.540164     85.080329
     -2.347347     40.418024     40.418024     80.836048
     -2.337337     36.511003     36.511003     73.022006
     -2.327327     31.252062     31.252062     62.504124
     -2.317317     25.475832     25.475832     50.951663
     -2.307307     20.184445     20.184445     40.368890
     -2.297297     16.275075     16.275075     32.550150
     -2.287287     14.336844     14.336844     28.673688
     -2.277277     14.569766     14.569766     29.139532
     -2.267267     16.814539     16.814539     33.629079
     -2.257257     20.646206     20.646206     41.292411
     -2.247247     25.484115     25.484115     50.968230
     -2.237237     30.688890     30.688890     61.377781
     -2.227227     35.635788     35.635788     71.271576
     -2.217217     39.765624     39.765624     79.531249
     -2.207207     42.621249     42.621249     85.242498
     -2.197197     43.881250     43.881250     87.762499
     -2.187187     43.400098     43.400098     86.800196
     -2.177177     41.251088     41.251088     82.502176
     -2.167167     37.748829     37.748829     75.497659
     -2.157157     33.416660     33.416660     66.833320
     -2.147147     28.878178     28.878178     57.756356
     -2.137137     24.692546     24.692546     49.385092
     -2.127127     21.196910     21.196910     42.393821
     -2.117117     18.431657     18.431657     36.863313
     -2.107107     16.188340     16.188340     32.376680
     -2.097097     14.154782     14.154782     28.309564
     -2.087087     12.080040     12.080040     24.160080
     -2.077077      9.878027      9.878027     19.756053
     -2.067067      7.631896      7.631896     15.263792
     -2.057057      5.519418      5.519418     11.038835
     -2.047047      3.714795      3.714795      7.429590
     -2.037037      2.319051      2.319051      4.638102
     -2.027027      1.341287      1.341287      2.682575
     -2.017017      0.721756      0.721756      1.443513
     -2.007007      0.372688      0.372688      0.745376
     -1.996997      0.216099      0.216099      0.432199
     -1.986987      0.209972      0.209972      0.419944
     -1.976977      0.364344      0.364344      0.728689
     -1.966967      0.751337      0.751337      1.502673
     -1.956957      1.508257      1.508257      3.016513
     -1.946947      2.825306      2.825306      5.650612
     -1.936937      4.905794      4.905794      9.811589
     -1.926927      7.893523      7.893523     15.787045
     -1.916917     11.780666     11.780666     23.561331
     -1.906907     16.332109     16.332109     32.664219
     -1.896897     21.072438     21.072438     42.144876
     -1.886887     25.365239     25.365239     50.730478
     -1.876877     28.572863     28.572863     57.145726
     -1.866867     30.240588     30.240588     60.481176
     -1.856857     30.231147     30.231147     60.462293
     -1.846847     28.756377     28.756377     57.512754
     -1.836837     26.298174     26.298174     52.596347
     -1.826827     23.453290     23.453290     46.906580
     -1.816817     20.757436     20.757436     41.514871
     -1.806807     18.543747     18.543747     37.087493
     -1.796797     16.877448     16.877448     33.754896
     -1.786787     15.585824     15.585824     31.171649
     -1.776777     14.370475     14.370475     28.740951
     -1.766767     12.955139     12.955139     25.910279
     -1.756757     11.205606     11.205606     22.411212
     -1.746747      9.173129      9.173129     18.346257
     -1.736737      7.053972      7.053972     14.107944
     -1.726727      5.100097      5.100097     10.200193
     -1.716717      3.533386      3.533386      7.066773
     -1.706707      2.500819      2.500819      5.001639
     -1.696697      2.075032      2.075032      4.150064
     -1.686687      2.276846      2.276846      4.553692
     -1.676677      3.088913      3.088913      6.177827
     -1.666667      4.443545      4.443545      8.887089
     -1.656657      6.192540      6.192540     12.385080
     -1.646647      8.087241      8.087241     16.174483
     -1.636637      9.800092      9.800092     19.600184
     -1.626627     11.000343     11.000343     22.000686
