# EIG2DOS: Utility for SIESTA to obtain the electronic density of states
#  E. Artacho, Apr 1999, A. Garcia, Apr 2012
#  Nick R. Papior, Feb 2017
# ------------------------------------------
# Eigenvalues calculated from a non-polarized calculation
# Eigenvalues read from siesta.EIG
# Kpoint weights read from siesta.KP
# Using smearing parameter:   0.0500
# Using 1000 points in the energy range
# Selected bands: 1 to: 2981
# Emin, Emax in file for selected band(s):    -27.2479564    218.3795140
# Nbands, Nspin, Nk   =   2981     1     1
# E_F                 =    -4.2170 eV --> (shifted to ZERO)
# Broadening          =     0.0500 eV
#
#        E            N(up)  (=)   N(down)         Ntot
     -5.000000     32.892664     32.892664     65.785327
     -4.989990     37.775526     37.775526     75.551052
     -4.979980     42.180916     42.180916     84.361833
     -4.969970     45.343820     45.343820     90.687640
     -4.959960     46.674352     46.674352     93.348704
     -4.949950     45.954724     45.954724     91.909449
     -4.939940     43.416219     43.416219     86.832437
     -4.929930     39.682436     39.682436     79.364872
     -4.919920     35.624146     35.624146     71.248292
     -4.909910     32.188168     32.188168     64.376336
     -4.899900     30.236262     30.236262     60.472524
     -4.889890     30.393628     30.393628     60.787256
     -4.879880     32.899877     32.899877     65.799754
     -4.869870     37.487632     37.487632     74.975263
     -4.859860     43.353759     43.353759     86.707519
     -4.849850     49.288711     49.288711     98.577421
     -4.839840     53.970464     53.970464    107.940929
     -4.829830     56.339479     56.339479    112.678958
     -4.819820     55.909332     55.909332    111.818663
     -4.809810     52.881328     52.881328    105.762657
     -4.799800     48.019023     48.019023     96.038045
     -4.789790     42.350039     42.350039     84.700078
     -4.779780     36.833119     36.833119     73.666237
     -4.769770     32.122188     32.122188     64.244376
     -4.759760     28.490695     28.490695     56.981391
     -4.749750     25.896855     25.896855     51.793709
     -4.739740     24.119595     24.119595     48.239190
     -4.729730     22.891462     22.891462     45.782924
     -4.719720     21.984118     21.984118     43.968235
     -4.709710     21.239693     21.239693     42.479387
     -4.699700     20.568605     20.568605     41.137211
     -4.689690     19.943120     19.943120     39.886241
     -4.679680     19.405284     19.405284     38.810569
     -4.669670     19.085833     19.085833     38.171667
     -4.659660     19.212926     19.212926     38.425852
     -4.649650     20.089179     20.089179     40.178357
     -4.639640     22.030978     22.030978     44.061955
     -4.629630     25.280432     25.280432     50.560865
     -4.619620     29.906518     29.906518     59.813035
     -4.609610     35.713599     35.713599     71.427198
     -4.599600     42.185739     42.185739     84.371477
     -4.589590     48.510951     48.510951     97.021902
     -4.579580     53.725672     53.725672    107.451343
     -4.569570     56.973886     56.973886    113.947773
     -4.559560     57.801289     57.801289    115.602577
     -4.549550     56.353128     56.353128    112.706256
     -4.539540     53.363365     53.363365    106.726729
     -4.529530     49.914004     49.914004     99.828009
     -4.519520     47.056093     47.056093     94.112187
     -4.509510     45.451405     45.451405     90.902811
     -4.499499     45.180423     45.180423     90.360847
     -4.489489     45.780896     45.780896     91.561792
     -4.479479     46.478595     46.478595     92.957189
     -4.469469     46.497833     46.497833     92.995666
     -4.459459     45.322923     45.322923     90.645846
     -4.449449     42.822437     42.822437     85.644874
     -4.439439     39.220362     39.220362     78.440724
     -4.429429     34.965244     34.965244     69.930488
     -4.419419     30.579017     30.579017     61.158033
     -4.409409     26.550488     26.550488     53.100976
     -4.399399     23.290015     23.290015     46.580030
     -4.389389     21.116017     21.116017     42.232033
     -4.379379     20.231860     20.231860     40.463721
     -4.369369     20.679084     20.679084     41.358167
     -4.359359     22.294754     22.294754     44.589508
     -4.349349     24.720540     24.720540     49.441081
     -4.339339     27.490054     27.490054     54.980107
     -4.329329     30.173192     30.173192     60.346385
     -4.319319     32.516113     32.516113     65.032225
     -4.309309     34.510512     34.510512     69.021024
     -4.299299     36.357436     36.357436     72.714872
     -4.289289     38.337486     38.337486     76.674971
     -4.279279     40.636980     40.636980     81.273961
     -4.269269     43.197012     43.197012     86.394023
     -4.259259     45.649635     45.649635     91.299270
     -4.249249     47.383421     47.383421     94.766843
     -4.239239     47.737127     47.737127     95.474254
     -4.229229     46.261680     46.261680     92.523361
     -4.219219     42.942512     42.942512     85.885023
     -4.209209     38.271818     38.271818     76.543636
     -4.199199     33.119943     33.119943     66.239886
     -4.189189     28.451994     28.451994     56.903988
     -4.179179     25.014690     25.014690     50.029381
     -4.169169     23.131400     23.131400     46.262800
     -4.159159     22.684545     22.684545     45.369090
     -4.149149     23.271173     23.271173     46.542346
     -4.139139     24.440828     24.440828     48.881655
     -4.129129     25.897898     25.897898     51.795796
     -4.119119     27.577002     27.577002     55.154004
     -4.109109     29.563119     29.563119     59.126239
     -4.099099     31.903641     31.903641     63.807283
     -4.089089     34.418671     34.418671     68.837342
     -4.079079     36.628742     36.628742     73.257483
     -4.069069     37.867603     37.867603     75.735206
     -4.059059     37.547522     37.547522     75.095044
     -4.049049     35.449453     35.449453     70.898906
     -4.039039     31.883314     31.883314     63.766629
     -4.029029     27.628610     27.628610     55.257221
     -4.019019     23.684431     23.684431     47.368863
     -4.009009     20.954671     20.954671     41.909343
     -3.998999     20.011675     20.011675     40.023351
     -3.988989     21.019003     21.019003     42.038006
     -3.978979     23.801332     23.801332     47.602664
     -3.968969     27.986055     27.986055     55.972111
     -3.958959     33.136179     33.136179     66.272357
     -3.948949     38.834427     38.834427     77.668855
     -3.938939     44.724655     44.724655     89.449310
     -3.928929     50.534309     50.534309    101.068617
     -3.918919     56.085712     56.085712    112.171424
     -3.908909     61.279162     61.279162    122.558324
     -3.898899     66.028882     66.028882    132.057763
     -3.888889     70.162879     70.162879    140.325758
     -3.878879     73.337566     73.337566    146.675132
     -3.868869     75.032460     75.032460    150.064919
     -3.858859     74.660914     74.660914    149.321829
     -3.848849     71.772917     71.772917    143.545833
     -3.838839     66.270767     66.270767    132.541535
     -3.828829     58.540988     58.540988    117.081976
     -3.818819     49.436252     49.436252     98.872503
     -3.808809     40.103032     40.103032     80.206064
     -3.798799     31.712290     31.712290     63.424581
     -3.788789     25.183853     25.183853     50.367707
     -3.778779     20.989700     20.989700     41.979399
     -3.768769     19.086538     19.086538     38.173077
     -3.758759     18.983571     18.983571     37.967142
     -3.748749     19.914822     19.914822     39.829644
     -3.738739     21.064853     21.064853     42.129707
     -3.728729     21.791139     21.791139     43.582278
     -3.718719     21.791335     21.791335     43.582669
     -3.708709     21.175724     21.175724     42.351448
     -3.698699     20.423312     20.423312     40.846623
     -3.688689     20.224996     20.224996     40.449991
     -3.678679     21.248136     21.248136     42.496273
     -3.668669     23.887712     23.887712     47.775424
     -3.658659     28.087261     28.087261     56.174522
     -3.648649     33.302371     33.302371     66.604742
     -3.638639     38.633371     38.633371     77.266741
     -3.628629     43.085213     43.085213     86.170427
     -3.618619     45.854949     45.854949     91.709897
     -3.608609     46.535916     46.535916     93.071832
     -3.598599     45.172746     45.172746     90.345492
     -3.588589     42.174622     42.174622     84.349243
     -3.578579     38.149761     38.149761     76.299521
     -3.568569     33.733080     33.733080     67.466161
     -3.558559     29.451270     29.451270     58.902540
     -3.548549     25.638502     25.638502     51.277003
     -3.538539     22.404870     22.404870     44.809741
     -3.528529     19.662277     19.662277     39.324554
     -3.518519     17.207325     17.207325     34.414650
     -3.508509     14.839100     14.839100     29.678200
     -3.498498     12.466907     12.466907     24.933815
     -3.488488     10.162066     10.162066     20.324131
     -3.478478      8.134431      8.134431     16.268863
     -3.468468      6.650505      6.650505     13.301009
     -3.458458      5.931688      5.931688     11.863377
     -3.448448      6.069817      6.069817     12.139635
     -3.438438      6.982845      6.982845     13.965689
     -3.428428      8.421155      8.421155     16.842310
     -3.418418     10.027569     10.027569     20.055138
     -3.408408     11.443608     11.443608     22.887215
     -3.398398     12.435757     12.435757     24.871515
     -3.388388     12.997022     12.997022     25.994045
     -3.378378     13.378316     13.378316     26.756632
     -3.368368     14.029681     14.029681     28.059363
     -3.358358     15.470547     15.470547     30.941093
     -3.348348     18.135472     18.135472     36.270944
     -3.338338     22.240134     22.240134     44.480267
     -3.328328     27.689567     27.689567     55.379133
     -3.318318     34.033154     34.033154     68.066308
     -3.308308     40.476611     40.476611     80.953223
     -3.298298     45.978673     45.978673     91.957346
     -3.288288     49.455449     49.455449     98.910898
     -3.278278     50.067394     50.067394    100.134789
     -3.268268     47.495077     47.495077     94.990153
     -3.258258     42.076874     42.076874     84.153749
     -3.248248     34.726380     34.726380     69.452761
     -3.238238     26.653317     26.653317     53.306634
     -3.228228     19.011315     19.011315     38.022630
     -3.218218     12.623303     12.623303     25.246607
     -3.208208      7.878641      7.878641     15.757282
     -3.198198      4.800906      4.800906      9.601812
     -3.188188      3.212280      3.212280      6.424561
     -3.178178      2.901790      2.901790      5.803579
     -3.168168      3.731657      3.731657      7.463315
     -3.158158      5.659510      5.659510     11.319020
     -3.148148      8.689996      8.689996     17.379991
     -3.138138     12.788830     12.788830     25.577661
     -3.128128     17.797295     17.797295     35.594590
     -3.118118     23.380033     23.380033     46.760066
     -3.108108     29.027261     29.027261     58.054522
     -3.098098     34.117339     34.117339     68.234678
     -3.088088     38.029590     38.029590     76.059181
     -3.078078     40.281271     40.281271     80.562542
     -3.068068     40.648399     40.648399     81.296798
     -3.058058     39.224604     39.224604     78.449208
     -3.048048     36.385828     36.385828     72.771655
     -3.038038     32.665464     32.665464     65.330928
     -3.028028     28.589982     28.589982     57.179964
     -3.018018     24.550215     24.550215     49.100430
     -3.008008     20.766219     20.766219     41.532439
     -2.997998     17.350428     17.350428     34.700856
     -2.987988     14.418805     14.418805     28.837610
     -2.977978     12.178300     12.178300     24.356599
     -2.967968     10.940350     10.940350     21.880701
     -2.957958     11.053725     11.053725     22.107451
     -2.947948     12.786386     12.786386     25.572771
     -2.937938     16.200951     16.200951     32.401902
     -2.927928     21.066450     21.066450     42.132901
     -2.917918     26.840283     26.840283     53.680567
     -2.907908     32.740618     32.740618     65.481235
     -2.897898     37.905803     37.905803     75.811605
     -2.887888     41.603819     41.603819     83.207639
     -2.877878     43.424019     43.424019     86.848039
     -2.867868     43.375748     43.375748     86.751495
     -2.857858     41.846858     41.846858     83.693715
     -2.847848     39.432909     39.432909     78.865819
     -2.837838     36.708173     36.708173     73.416346
     -2.827828     34.039202     34.039202     68.078404
     -2.817818     31.521070     31.521070     63.042140
     -2.807808     29.053372     29.053372     58.106744
     -2.797798     26.501189     26.501189     53.002377
     -2.787788     23.845482     23.845482     47.690964
     -2.777778     21.240599     21.240599     42.481198
     -2.767768     18.955219     18.955219     37.910438
     -2.757758     17.242426     17.242426     34.484853
     -2.747748     16.223822     16.223822     32.447645
     -2.737738     15.858777     15.858777     31.717553
     -2.727728     16.011771     16.011771     32.023541
     -2.717718     16.564904     16.564904     33.129807
     -2.707708     17.492209     17.492209     34.984418
     -2.697698     18.839738     18.839738     37.679476
     -2.687688     20.624393     20.624393     41.248785
     -2.677678     22.728242     22.728242     45.456484
     -2.667668     24.876256     24.876256     49.752511
     -2.657658     26.731474     26.731474     53.462949
     -2.647648     28.057657     28.057657     56.115315
     -2.637638     28.845799     28.845799     57.691598
     -2.627628     29.318915     29.318915     58.637830
     -2.617618     29.808236     29.808236     59.616472
     -2.607608     30.576531     30.576531     61.153062
     -2.597598     31.691197     31.691197     63.382394
     -2.587588     33.005708     33.005708     66.011417
     -2.577578     34.232594     34.232594     68.465187
     -2.567568     35.043969     35.043969     70.087939
     -2.557558     35.146707     35.146707     70.293414
     -2.547548     34.326424     34.326424     68.652847
     -2.537538     32.488361     32.488361     64.976722
     -2.527528     29.713422     29.713422     59.426845
     -2.517518     26.308281     26.308281     52.616562
     -2.507508     22.801050     22.801050     45.602099
     -2.497497     19.847769     19.847769     39.695538
     -2.487487     18.062607     18.062607     36.125214
     -2.477477     17.832409     17.832409     35.664817
     -2.467467     19.193207     19.193207     38.386414
     -2.457457     21.824216     21.824216     43.648432
     -2.447447     25.166745     25.166745     50.333490
     -2.437437     28.623170     28.623170     57.246340
     -2.427427     31.755500     31.755500     63.511000
     -2.417417     34.399336     34.399336     68.798671
     -2.407407     36.642034     36.642034     73.284069
     -2.397397     38.673716     38.673716     77.347433
     -2.387387     40.582016     40.582016     81.164032
     -2.377377     42.196314     42.196314     84.392628
     -2.367367     43.072631     43.072631     86.145262
     -2.357357     42.645859     42.645859     85.291717
     -2.347347     40.488830     40.488830     80.977659
     -2.337337     36.554740     36.554740     73.109479
     -2.327327     31.281037     31.281037     62.562075
     -2.317317     25.502660     25.502660     51.005319
     -2.307307     20.219010     20.219010     40.438021
     -2.297297     16.323201     16.323201     32.646402
     -2.287287     14.400172     14.400172     28.800344
     -2.277277     14.646066     14.646066     29.292132
     -2.267267     16.898070     16.898070     33.796139
     -2.257257     20.728340     20.728340     41.456680
     -2.247247     25.554610     25.554610     51.109219
     -2.237237     30.737869     30.737869     61.475738
     -2.227227     35.656002     35.656002     71.312003
     -2.217217     39.754236     39.754236     79.508472
     -2.207207     42.580458     42.580458     85.160916
     -2.197197     43.817487     43.817487     87.634974
     -2.187187     43.322085     43.322085     86.644169
     -2.177177     41.167529     41.167529     82.335057
     -2.167167     37.666637     37.666637     75.333274
     -2.157157     33.340314     33.340314     66.680627
     -2.147147     28.810229     28.810229     57.620457
     -2.137137     24.634713     24.634713     49.269427
     -2.127127     21.150970     21.150970     42.301941
     -2.117117     18.399548     18.399548     36.799096
     -2.107107     16.171468     16.171468     32.342935
     -2.097097     14.153024     14.153024     28.306048
     -2.087087     12.091165     12.091165     24.182329
     -2.077077      9.897949      9.897949     19.795898
     -2.067067      7.655704      7.655704     15.311409
     -2.057057      5.542655      5.542655     11.085311
     -2.047047      3.734413      3.734413      7.468826
     -2.037037      2.333697      2.333697      4.667394
     -2.027027      1.350958      1.350958      2.701916
     -2.017017      0.727062      0.727062      1.454125
     -2.007007      0.373965      0.373965      0.747929
     -1.996997      0.212418      0.212418      0.424836
     -1.986987      0.197951      0.197951      0.395902
     -1.976977      0.336726      0.336726      0.673451
     -1.966967      0.695657      0.695657      1.391314
     -1.956957      1.406594      1.406594      2.813188
     -1.946947      2.656625      2.656625      5.313250
     -1.936937      4.652192      4.652192      9.304383
     -1.926927      7.550089      7.550089     15.100178
     -1.916917     11.365870     11.365870     22.731739
     -1.906907     15.893070     15.893070     31.786141
     -1.896897     20.679505     20.679505     41.359010
     -1.886887     25.094345     25.094345     50.188690
     -1.876877     28.480856     28.480856     56.961711
     -1.866867     30.344076     30.344076     60.688151
     -1.856857     30.499227     30.499227     60.998454
     -1.846847     29.121224     29.121224     58.242448
     -1.836837     26.678601     26.678601     53.357202
     -1.826827     23.780591     23.780591     47.561181
     -1.816817     20.993110     20.993110     41.986219
     -1.806807     18.683986     18.683986     37.367973
     -1.796797     16.945573     16.945573     33.891147
     -1.786787     15.617997     15.617997     31.235995
     -1.776777     14.400957     14.400957     28.801914
     -1.766767     13.005947     13.005947     26.011894
     -1.756757     11.282876     11.282876     22.565751
     -1.746747      9.269764      9.269764     18.539528
     -1.736737      7.156064      7.156064     14.312127
     -1.726727      5.193771      5.193771     10.387541
     -1.716717      3.609432      3.609432      7.218863
     -1.706707      2.556098      2.556098      5.112195
     -1.696697      2.111301      2.111301      4.222601
     -1.686687      2.298450      2.298450      4.596899
     -1.676677      3.100656      3.100656      6.201311
     -1.666667      4.449410      4.449410      8.898819
     -1.656657      6.195283      6.195283     12.390566
     -1.646647      8.088540      8.088540     16.177080
     -1.636637      9.800935      9.800935     19.601869
     -1.626627     11.001453     11.001453     22.002906
