# EIG2DOS: Utility for SIESTA to obtain the electronic density of states
#  E. Artacho, Apr 1999, A. Garcia, Apr 2012
#  Nick R. Papior, Feb 2017
# ------------------------------------------
# Eigenvalues calculated from a non-polarized calculation
# Eigenvalues read from siesta.EIG
# Kpoint weights read from siesta.KP
# Using smearing parameter:   0.0500
# Using 1000 points in the energy range
# Selected bands: 1 to: 2981
# Emin, Emax in file for selected band(s):    -27.2779323    218.3747970
# Nbands, Nspin, Nk   =   2981     1     1
# E_F                 =    -4.2248 eV --> (shifted to ZERO)
# Broadening          =     0.0500 eV
#
#        E            N(up)  (=)   N(down)         Ntot
     -5.000000     32.264402     32.264402     64.528805
     -4.989990     36.945960     36.945960     73.891919
     -4.979980     41.256465     41.256465     82.512931
     -4.969970     44.483745     44.483745     88.967490
     -4.959960     46.040025     46.040025     92.080051
     -4.949950     45.655113     45.655113     91.310227
     -4.939940     43.471493     43.471493     86.942987
     -4.929930     40.017442     40.017442     80.034884
     -4.919920     36.089813     36.089813     72.179626
     -4.909910     32.600664     32.600664     65.201328
     -4.899900     30.423559     30.423559     60.847119
     -4.889890     30.242042     30.242042     60.484084
     -4.879880     32.392544     32.392544     64.785087
     -4.869870     36.722536     36.722536     73.445071
     -4.859860     42.527809     42.527809     85.055619
     -4.849850     48.643725     48.643725     97.287451
     -4.839840     53.715263     53.715263    107.430526
     -4.829830     56.578350     56.578350    113.156700
     -4.819820     56.608306     56.608306    113.216612
     -4.809810     53.886726     53.886726    107.773453
     -4.799800     49.117550     49.117550     98.235101
     -4.789790     43.341881     43.341881     86.683761
     -4.779780     37.588632     37.588632     75.177265
     -4.769770     32.606440     32.606440     65.212879
     -4.759760     28.757311     28.757311     57.514622
     -4.749750     26.063692     26.063692     52.127385
     -4.739740     24.340675     24.340675     48.681350
     -4.729730     23.335305     23.335305     46.670609
     -4.719720     22.821513     22.821513     45.643026
     -4.709710     22.635352     22.635352     45.270704
     -4.699700     22.663305     22.663305     45.326611
     -4.689690     22.811592     22.811592     45.623183
     -4.679680     22.987075     22.987075     45.974149
     -4.669670     23.111254     23.111254     46.222508
     -4.659660     23.170103     23.170103     46.340207
     -4.649650     23.279723     23.279723     46.559446
     -4.639640     23.728606     23.728606     47.457211
     -4.629630     24.951138     24.951138     49.902275
     -4.619620     27.404004     27.404004     54.808008
     -4.609610     31.361770     31.361770     62.723540
     -4.599600     36.706363     36.706363     73.412727
     -4.589590     42.822769     42.822769     85.645538
     -4.579580     48.692815     48.692815     97.385629
     -4.569570     53.193186     53.193186    106.386373
     -4.559560     55.492373     55.492373    110.984746
     -4.549550     55.371391     55.371391    110.742782
     -4.539540     53.313782     53.313782    106.627564
     -4.529530     50.315701     50.315701    100.631402
     -4.519520     47.498954     47.498954     94.997907
     -4.509510     45.697242     45.697242     91.394484
     -4.499499     45.187120     45.187120     90.374240
     -4.489489     45.657900     45.657900     91.315800
     -4.479479     46.404063     46.404063     92.808126
     -4.469469     46.634178     46.634178     93.268356
     -4.459459     45.759033     45.759033     91.518066
     -4.449449     43.554305     43.554305     87.108609
     -4.439439     40.165647     40.165647     80.331295
     -4.429429     35.997174     35.997174     71.994349
     -4.419419     31.563000     31.563000     63.126001
     -4.409409     27.371592     27.371592     54.743183
     -4.399399     23.867519     23.867519     47.735037
     -4.389389     21.408054     21.408054     42.816108
     -4.379379     20.235236     20.235236     40.470471
     -4.369369     20.426529     20.426529     40.853057
     -4.359359     21.847637     21.847637     43.695274
     -4.349349     24.153828     24.153828     48.307656
     -4.339339     26.870047     26.870047     53.740095
     -4.329329     29.534769     29.534769     59.069538
     -4.319319     31.850152     31.850152     63.700303
     -4.309309     33.770377     33.770377     67.540755
     -4.299299     35.486104     35.486104     70.972208
     -4.289289     37.307541     37.307541     74.615081
     -4.279279     39.488415     39.488415     78.976831
     -4.269269     42.055568     42.055568     84.111137
     -4.259259     44.712813     44.712813     89.425626
     -4.249249     46.872248     46.872248     93.744495
     -4.239239     47.826664     47.826664     95.653327
     -4.229229     47.015854     47.015854     94.031707
     -4.219219     44.281303     44.281303     88.562606
     -4.209209     39.987072     39.987072     79.974144
     -4.199199     34.934474     34.934474     69.868949
     -4.189189     30.097147     30.097147     60.194295
     -4.179179     26.295204     26.295204     52.590408
     -4.169169     23.955886     23.955886     47.911772
     -4.159159     23.057578     23.057578     46.115156
     -4.149149     23.258356     23.258356     46.516711
     -4.139139     24.125344     24.125344     48.250688
     -4.129129     25.346632     25.346632     50.693265
     -4.119119     26.829239     26.829239     53.658478
     -4.109109     28.646138     28.646138     57.292275
     -4.099099     30.867185     30.867185     61.734369
     -4.089089     33.367837     33.367837     66.735673
     -4.079079     35.730411     35.730411     71.460823
     -4.069069     37.316262     37.316262     74.632524
     -4.059059     37.499562     37.499562     74.999124
     -4.049049     35.956951     35.956951     71.913903
     -4.039039     32.862643     32.862643     65.725285
     -4.029029     28.881282     28.881282     57.762564
     -4.019019     24.958915     24.958915     49.917830
     -4.009009     22.017943     22.017943     44.035885
     -3.998999     20.699952     20.699952     41.399904
     -3.988989     21.254573     21.254573     42.509146
     -3.978979     23.582079     23.582079     47.164158
     -3.968969     27.363361     27.363361     54.726723
     -3.958959     32.193098     32.193098     64.386195
     -3.948949     37.666904     37.666904     75.333808
     -3.938939     43.423585     43.423585     86.847170
     -3.928929     49.169033     49.169033     98.338066
     -3.918919     54.695764     54.695764    109.391528
     -3.908909     59.882892     59.882892    119.765785
     -3.898899     64.650462     64.650462    129.300924
     -3.888889     68.866477     68.866477    137.732954
     -3.878879     72.248189     72.248189    144.496378
     -3.868869     74.325201     74.325201    148.650403
     -3.858859     74.514967     74.514967    149.029934
     -3.848849     72.306029     72.306029    144.612058
     -3.838839     67.482509     67.482509    134.965018
     -3.828829     60.291430     60.291430    120.582861
     -3.818819     51.471405     51.471405    102.942811
     -3.808809     42.118071     42.118071     84.236142
     -3.798799     33.428937     33.428937     66.857874
     -3.788789     26.415464     26.415464     52.830927
     -3.778779     21.675587     21.675587     43.351174
     -3.768769     19.289839     19.289839     38.579679
     -3.758759     18.858232     18.858232     37.716464
     -3.748749     19.653933     19.653933     39.307866
     -3.738739     20.844697     20.844697     41.689394
     -3.728729     21.724404     21.724404     43.448808
     -3.718719     21.900054     21.900054     43.800109
     -3.708709     21.390109     21.390109     42.780219
     -3.698699     20.607041     20.607041     41.214082
     -3.688689     20.221159     20.221159     40.442318
     -3.678679     20.933750     20.933750     41.867501
     -3.668669     23.220284     23.220284     46.440568
     -3.658659     27.126981     27.126981     54.253962
     -3.648649     32.200337     32.200337     64.400674
     -3.638639     37.588927     37.588927     75.177854
     -3.628629     42.288713     42.288713     84.577427
     -3.618619     45.438367     45.438367     90.876733
     -3.608609     46.548462     46.548462     93.096923
     -3.598599     45.585002     45.585002     91.170004
     -3.588589     42.901739     42.901739     85.803477
     -3.578579     39.079769     39.079769     78.159538
     -3.568569     34.751001     34.751001     69.502002
     -3.558559     30.457028     30.457028     60.914055
     -3.548549     26.559919     26.559919     53.119838
     -3.538539     23.205149     23.205149     46.410299
     -3.528529     20.338864     20.338864     40.677729
     -3.518519     17.780484     17.780484     35.560968
     -3.508509     15.333670     15.333670     30.667341
     -3.498498     12.895155     12.895155     25.790310
     -3.488488     10.515237     10.515237     21.030473
     -3.478478      8.385880      8.385880     16.771759
     -3.468468      6.767809      6.767809     13.535618
     -3.458458      5.892393      5.892393     11.784786
     -3.448448      5.875547      5.875547     11.751093
     -3.438438      6.667630      6.667630     13.335259
     -3.428428      8.050691      8.050691     16.101382
     -3.418418      9.687855      9.687855     19.375709
     -3.408408     11.221528     11.221528     22.443055
     -3.398398     12.399772     12.399772     24.799545
     -3.388388     13.189064     13.189064     26.378127
     -3.378378     13.823933     13.823933     27.647865
     -3.368368     14.762181     14.762181     29.524362
     -3.358358     16.552104     16.552104     33.104209
     -3.348348     19.653105     19.653105     39.306209
     -3.338338     24.263669     24.263669     48.527338
     -3.328328     30.200936     30.200936     60.401872
     -3.318318     36.860539     36.860539     73.721078
     -3.308308     43.277150     43.277150     86.554300
     -3.298298     48.298167     48.298167     96.596334
     -3.288288     50.855989     50.855989    101.711978
     -3.278278     50.273922     50.273922    100.547844
     -3.268268     46.495332     46.495332     92.990664
     -3.258258     40.129530     40.129530     80.259060
     -3.248248     32.278945     32.278945     64.557890
     -3.238238     24.215898     24.215898     48.431797
     -3.228228     17.047432     17.047432     34.094864
     -3.218218     11.497433     11.497433     22.994866
     -3.208208      7.858115      7.858115     15.716230
     -3.198198      6.073906      6.073906     12.147813
     -3.188188      5.875287      5.875287     11.750575
     -3.178178      6.894215      6.894215     13.788429
     -3.168168      8.740397      8.740397     17.480795
     -3.158158     11.056661     11.056661     22.113322
     -3.148148     13.575144     13.575144     27.150288
     -3.138138     16.168558     16.168558     32.337117
     -3.128128     18.861786     18.861786     37.723572
     -3.118118     21.770236     21.770236     43.540471
     -3.108108     24.970848     24.970848     49.941696
     -3.098098     28.364617     28.364617     56.729234
     -3.088088     31.614313     31.614313     63.228626
     -3.078078     34.211056     34.211056     68.422113
     -3.068068     35.650737     35.650737     71.301475
     -3.058058     35.631966     35.631966     71.263931
     -3.048048     34.169487     34.169487     68.338975
     -3.038038     31.565687     31.565687     63.131375
     -3.028028     28.266972     28.266972     56.533944
     -3.018018     24.695878     24.695878     49.391755
     -3.008008     21.152821     21.152821     42.305641
     -2.997998     17.826296     17.826296     35.652591
     -2.987988     14.878920     14.878920     29.757839
     -2.977978     12.536643     12.536643     25.073287
     -2.967968     11.118402     11.118402     22.236805
     -2.957958     10.985766     10.985766     21.971532
     -2.947948     12.434106     12.434106     24.868213
     -2.937938     15.568205     15.568205     31.136409
     -2.927928     20.206998     20.206998     40.413996
     -2.917918     25.854290     25.854290     51.708579
     -2.907908     31.758671     31.758671     63.517342
     -2.897898     37.062816     37.062816     74.125632
     -2.887888     41.009098     41.009098     82.018195
     -2.877878     43.136563     43.136563     86.273125
     -2.867868     43.393579     43.393579     86.787159
     -2.857858     42.114928     42.114928     84.229857
     -2.847848     39.866937     39.866937     79.733873
     -2.837838     37.224636     37.224636     74.449272
     -2.827828     34.578490     34.578490     69.156981
     -2.817818     32.054052     32.054052     64.108104
     -2.807808     29.570493     29.570493     59.140987
     -2.797798     26.992933     26.992933     53.985866
     -2.787788     24.287646     24.287646     48.575291
     -2.777778     21.594105     21.594105     43.188210
     -2.767768     19.180139     19.180139     38.360278
     -2.757758     17.315789     17.315789     34.631579
     -2.747748     16.147519     16.147519     32.295038
     -2.737738     15.650289     15.650289     31.300578
     -2.727728     15.683160     15.683160     31.366321
     -2.717718     16.106106     16.106106     32.212213
     -2.707708     16.874862     16.874862     33.749724
     -2.697698     18.045165     18.045165     36.090330
     -2.687688     19.680873     19.680873     39.361746
     -2.677678     21.731214     21.731214     43.462429
     -2.667668     23.970965     23.970965     47.941930
     -2.657658     26.059756     26.059756     52.119512
     -2.647648     27.695301     27.695301     55.390601
     -2.637638     28.766432     28.766432     57.532865
     -2.627628     29.406260     29.406260     58.812520
     -2.617618     29.909769     29.909769     59.819538
     -2.607608     30.568176     30.568176     61.136351
     -2.597598     31.520585     31.520585     63.041169
     -2.587588     32.699856     32.699856     65.399713
     -2.577578     33.878370     33.878370     67.756739
     -2.567568     34.759442     34.759442     69.518885
     -2.557558     35.054709     35.054709     70.109418
     -2.547548     34.529455     34.529455     69.058910
     -2.537538     33.040218     33.040218     66.080436
     -2.527528     30.590977     30.590977     61.181955
     -2.517518     27.397279     27.397279     54.794558
     -2.507508     23.910545     23.910545     47.821089
     -2.497497     20.755780     20.755780     41.511561
     -2.487487     18.578825     18.578825     37.157651
     -2.477477     17.853845     17.853845     35.707689
     -2.467467     18.731242     18.731242     37.462483
     -2.457457     20.993937     20.993937     41.987873
     -2.447447     24.144603     24.144603     48.289206
     -2.437437     27.590395     27.590395     55.180791
     -2.427427     30.848617     30.848617     61.697234
     -2.417417     33.684927     33.684927     67.369855
     -2.407407     36.122632     36.122632     72.245264
     -2.397397     38.319326     38.319326     76.638652
     -2.387387     40.371705     40.371705     80.743409
     -2.377377     42.149839     42.149839     84.299678
     -2.367367     43.255447     43.255447     86.510894
     -2.357357     43.142310     43.142310     86.284619
     -2.347347     41.354545     41.354545     82.709089
     -2.337337     37.772130     37.772130     75.544259
     -2.327327     32.742404     32.742404     65.484808
     -2.317317     27.031329     27.031329     54.062659
     -2.307307     21.618156     21.618156     43.236311
     -2.297297     17.428122     17.428122     34.856245
     -2.287287     15.111213     15.111213     30.222425
     -2.277277     14.933240     14.933240     29.866480
     -2.267267     16.784318     16.784318     33.568636
     -2.257257     20.266554     20.266554     40.533108
     -2.247247     24.811727     24.811727     49.623455
     -2.237237     29.791272     29.791272     59.582544
     -2.227227     34.598805     34.598805     69.197611
     -2.217217     38.700760     38.700760     77.401520
     -2.207207     41.662649     41.662649     83.325297
     -2.197197     43.167081     43.167081     86.334162
     -2.187187     43.040645     43.040645     86.081291
     -2.177177     41.294608     41.294608     82.589215
     -2.167167     38.161265     38.161265     76.322529
     -2.157157     34.088586     34.088586     68.177173
     -2.147147     29.660885     29.660885     59.321770
     -2.137137     25.449811     25.449811     50.899622
     -2.127127     21.849019     21.849019     43.698038
     -2.117117     18.971091     18.971091     37.942182
     -2.107107     16.661700     16.661700     33.323400
     -2.097097     14.623714     14.623714     29.247429
     -2.087087     12.583673     12.583673     25.167347
     -2.077077     10.415205     10.415205     20.830410
     -2.067067      8.167654      8.167654     16.335308
     -2.057057      6.006572      6.006572     12.013144
     -2.047047      4.116292      4.116292      8.232584
     -2.037037      2.620847      2.620847      5.241694
     -2.027027      1.554155      1.554155      3.108309
     -2.017017      0.877365      0.877365      1.754729
     -2.007007      0.521385      0.521385      1.042770
     -1.996997      0.431213      0.431213      0.862426
     -1.986987      0.597994      0.597994      1.195988
     -1.976977      1.073675      1.073675      2.147349
     -1.966967      1.966387      1.966387      3.932775
     -1.956957      3.414280      3.414280      6.828559
     -1.946947      5.537394      5.537394     11.074788
     -1.936937      8.375331      8.375331     16.750663
     -1.926927     11.830511     11.830511     23.661021
     -1.916917     15.644254     15.644254     31.288509
     -1.906907     19.426399     19.426399     38.852798
     -1.896897     22.737232     22.737232     45.474464
     -1.886887     25.193955     25.193955     50.387910
     -1.876877     26.560070     26.560070     53.120139
     -1.866867     26.785915     26.785915     53.571829
     -1.856857     25.995802     25.995802     51.991604
     -1.846847     24.441700     24.441700     48.883399
     -1.836837     22.447714     22.447714     44.895428
     -1.826827     20.354889     20.354889     40.709778
     -1.816817     18.461072     18.461072     36.922144
     -1.806807     16.954273     16.954273     33.908546
     -1.796797     15.858299     15.858299     31.716598
     -1.786787     15.024482     15.024482     30.048965
     -1.776777     14.191457     14.191457     28.382914
     -1.766767     13.097885     13.097885     26.195769
     -1.756757     11.597257     11.597257     23.194514
     -1.746747      9.718423      9.718423     19.436847
     -1.736737      7.646437      7.646437     15.292875
     -1.726727      5.643728      5.643728     11.287456
     -1.716717      3.960032      3.960032      7.920063
     -1.706707      2.774820      2.774820      5.549639
     -1.696697      2.186540      2.186540      4.373080
     -1.686687      2.231686      2.231686      4.463372
     -1.676677      2.902834      2.902834      5.805669
     -1.666667      4.143685      4.143685      8.287370
     -1.656657      5.822612      5.822612     11.645225
     -1.646647      7.709177      7.709177     15.418354
     -1.636637      9.485955      9.485955     18.971910
     -1.626627     10.813871     10.813871     21.627741
