# EIG2DOS: Utility for SIESTA to obtain the electronic density of states
#  E. Artacho, Apr 1999, A. Garcia, Apr 2012
#  Nick R. Papior, Feb 2017
# ------------------------------------------
# Eigenvalues calculated from a non-polarized calculation
# Eigenvalues read from siesta.EIG
# Kpoint weights read from siesta.KP
# Using smearing parameter:   0.0500
# Using 1000 points in the energy range
# Selected bands: 1 to: 2981
# Emin, Emax in file for selected band(s):    -27.2847130    218.3685390
# Nbands, Nspin, Nk   =   2981     1     1
# E_F                 =    -4.2341 eV --> (shifted to ZERO)
# Broadening          =     0.0500 eV
#
#        E            N(up)  (=)   N(down)         Ntot
     -5.000000     32.153603     32.153603     64.307206
     -4.989990     36.768145     36.768145     73.536290
     -4.979980     41.030569     41.030569     82.061139
     -4.969970     44.248206     44.248206     88.496412
     -4.959960     45.840460     45.840460     91.680921
     -4.949950     45.528988     45.528988     91.057976
     -4.939940     43.435933     43.435933     86.871866
     -4.929930     40.064175     40.064175     80.128351
     -4.919920     36.187811     36.187811     72.375622
     -4.909910     32.704660     32.704660     65.409320
     -4.899900     30.486118     30.486118     60.972235
     -4.889890     30.227096     30.227096     60.454191
     -4.879880     32.287743     32.287743     64.575486
     -4.869870     36.546386     36.546386     73.092771
     -4.859860     42.327326     42.327326     84.654652
     -4.849850     48.481088     48.481088     96.962176
     -4.839840     53.647135     53.647135    107.294270
     -4.829830     56.636058     56.636058    113.272116
     -4.819820     56.787497     56.787497    113.574993
     -4.809810     54.150740     54.150740    108.301481
     -4.799800     49.412231     49.412231     98.824462
     -4.789790     43.614962     43.614962     87.229923
     -4.779780     37.806665     37.806665     75.613329
     -4.769770     32.765693     32.765693     65.531386
     -4.759760     28.889269     28.889269     57.778538
     -4.749750     26.237666     26.237666     52.475332
     -4.739740     24.664338     24.664338     49.328677
     -4.729730     23.949543     23.949543     47.899087
     -4.719720     23.881625     23.881625     47.763249
     -4.709710     24.270647     24.270647     48.541295
     -4.699700     24.915379     24.915379     49.830758
     -4.689690     25.567844     25.567844     51.135688
     -4.679680     25.942568     25.942568     51.885135
     -4.669670     25.794662     25.794662     51.589324
     -4.659660     25.047980     25.047980     50.095960
     -4.649650     23.913102     23.913102     47.826203
     -4.639640     22.920377     22.920377     45.840754
     -4.629630     22.818032     22.818032     45.636064
     -4.619620     24.340718     24.340718     48.681436
     -4.609610     27.916649     27.916649     55.833297
     -4.599600     33.425324     33.425324     66.850647
     -4.589590     40.120950     40.120950     80.241901
     -4.579580     46.787874     46.787874     93.575747
     -4.569570     52.102393     52.102393    104.204786
     -4.559560     55.075834     55.075834    110.151668
     -4.549550     55.398903     55.398903    110.797806
     -4.539540     53.535879     53.535879    107.071757
     -4.529530     50.523768     50.523768    101.047535
     -4.519520     47.563645     47.563645     95.127290
     -4.509510     45.580224     45.580224     91.160447
     -4.499499     44.928182     44.928182     89.856365
     -4.489489     45.345413     45.345413     90.690826
     -4.479479     46.139473     46.139473     92.278946
     -4.469469     46.500532     46.500532     93.001063
     -4.459459     45.800530     45.800530     91.601060
     -4.449449     43.769938     43.769938     87.539877
     -4.439439     40.515877     40.515877     81.031753
     -4.429429     36.419135     36.419135     72.838270
     -4.419419     31.987976     31.987976     63.975952
     -4.409409     27.739197     27.739197     55.478395
     -4.399399     24.133948     24.133948     48.267896
     -4.389389     21.549045     21.549045     43.098089
     -4.379379     20.246095     20.246095     40.492189
     -4.369369     20.320871     20.320871     40.641743
     -4.359359     21.654609     21.654609     43.309218
     -4.349349     23.912538     23.912538     47.825076
     -4.339339     26.620775     26.620775     53.241549
     -4.329329     29.308582     29.308582     58.617164
     -4.319319     31.660150     31.660150     63.320301
     -4.309309     33.607896     33.607896     67.215793
     -4.299299     35.324025     35.324025     70.648050
     -4.289289     37.111108     37.111108     74.222216
     -4.279279     39.231766     39.231766     78.463531
     -4.269269     41.739314     41.739314     83.478628
     -4.259259     44.375242     44.375242     88.750484
     -4.249249     46.586402     46.586402     93.172804
     -4.239239     47.680185     47.680185     95.360369
     -4.229229     47.079260     47.079260     94.158519
     -4.219219     44.578378     44.578378     89.156755
     -4.209209     40.482092     40.482092     80.964184
     -4.199199     35.543122     35.543122     71.086244
     -4.189189     30.715570     30.715570     61.431140
     -4.179179     26.832821     26.832821     53.665642
     -4.169169     24.357433     24.357433     48.714867
     -4.159159     23.307486     23.307486     46.614971
     -4.149149     23.370172     23.370172     46.740344
     -4.139139     24.124945     24.124945     48.249890
     -4.129129     25.258441     25.258441     50.516881
     -4.119119     26.671054     26.671054     53.342108
     -4.109109     28.433033     28.433033     56.866067
     -4.099099     30.620330     30.620330     61.240660
     -4.089089     33.121542     33.121542     66.243084
     -4.079079     35.531346     35.531346     71.062692
     -4.069069     37.212895     37.212895     74.425790
     -4.059059     37.525732     37.525732     75.051464
     -4.049049     36.117623     36.117623     72.235247
     -4.039039     33.129401     33.129401     66.258802
     -4.029029     29.199926     29.199926     58.399853
     -4.019019     25.265080     25.265080     50.530160
     -4.009009     22.253191     22.253191     44.506381
     -3.998999     20.822165     20.822165     41.644330
     -3.988989     21.241021     21.241021     42.482043
     -3.978979     23.427650     23.427650     46.855301
     -3.968969     27.077497     27.077497     54.154995
     -3.958959     31.797138     31.797138     63.594277
     -3.948949     37.191069     37.191069     74.382137
     -3.938939     42.902127     42.902127     85.804254
     -3.928929     48.633808     48.633808     97.267615
     -3.918919     54.170954     54.170954    108.341907
     -3.908909     59.384423     59.384423    118.768845
     -3.898899     64.191458     64.191458    128.382916
     -3.888889     68.466077     68.466077    136.932154
     -3.878879     71.938032     71.938032    143.876064
     -3.868869     74.148291     74.148291    148.296581
     -3.858859     74.515440     74.515440    149.030880
     -3.848849     72.513330     72.513330    145.026661
     -3.838839     67.896648     67.896648    135.793296
     -3.828829     60.875891     60.875891    121.751781
     -3.818819     52.157148     52.157148    104.314296
     -3.808809     42.817753     42.817753     85.635506
     -3.798799     34.056776     34.056776     68.113552
     -3.788789     26.906457     26.906457     53.812914
     -3.778779     21.998414     21.998414     43.996827
     -3.768769     19.450234     19.450234     38.900468
     -3.758759     18.892762     18.892762     37.785525
     -3.748749     19.616755     19.616755     39.233510
     -3.738739     20.791295     20.791295     41.582589
     -3.728729     21.696480     21.696480     43.392959
     -3.718719     21.915065     21.915065     43.830130
     -3.708709     21.437809     21.437809     42.875618
     -3.698699     20.653979     20.653979     41.307958
     -3.688689     20.222343     20.222343     40.444687
     -3.678679     20.848664     20.848664     41.697329
     -3.668669     23.028586     23.028586     46.057171
     -3.658659     26.838436     26.838436     53.676872
     -3.648649     31.854800     31.854800     63.709601
     -3.638639     37.245724     37.245724     74.491447
     -3.628629     42.009279     42.009279     84.018558
     -3.618619     45.269093     45.269093     90.538187
     -3.608609     46.510293     46.510293     93.020586
     -3.598599     45.672528     45.672528     91.345055
     -3.588589     43.089855     43.089855     86.179710
     -3.578579     39.333402     39.333402     78.666804
     -3.568569     35.034031     35.034031     70.068061
     -3.558559     30.738894     30.738894     61.477788
     -3.548549     26.819962     26.819962     53.639924
     -3.538539     23.434634     23.434634     46.869267
     -3.528529     20.539952     20.539952     41.079905
     -3.518519     17.961810     17.961810     35.923619
     -3.508509     15.503826     15.503826     31.007651
     -3.498498     13.056911     13.056911     26.113822
     -3.488488     10.663175     10.663175     21.326350
     -3.478478      8.508255      8.508255     17.016511
     -3.468468      6.851335      6.851335     13.702671
     -3.458458      5.927610      5.927610     11.855221
     -3.448448      5.860808      5.860808     11.721617
     -3.438438      6.610610      6.610610     13.221219
     -3.428428      7.966903      7.966903     15.933806
     -3.418418      9.595947      9.595947     19.191895
     -3.408408     11.135713     11.135713     22.271427
     -3.398398     12.320908     12.320908     24.641816
     -3.388388     13.097223     13.097223     26.194447
     -3.378378     13.675897     13.675897     27.351794
     -3.368368     14.496747     14.496747     28.993493
     -3.358358     16.104563     16.104563     32.209126
     -3.348348     18.977827     18.977827     37.955654
     -3.338338     23.360256     23.360256     46.720513
     -3.328328     29.135234     29.135234     58.270468
     -3.318318     35.769038     35.769038     71.538076
     -3.308308     42.345608     42.345608     84.691216
     -3.298298     47.714807     47.714807     95.429615
     -3.288288     50.753356     50.753356    101.506713
     -3.278278     50.683179     50.683179    101.366358
     -3.268268     47.334383     47.334383     94.668767
     -3.258258     41.231081     41.231081     82.462161
     -3.248248     33.445075     33.445075     66.890151
     -3.238238     25.274166     25.274166     50.548331
     -3.228228     17.886402     17.886402     35.772804
     -3.218218     12.073466     12.073466     24.146931
     -3.208208      8.180154      8.180154     16.360308
     -3.198198      6.180435      6.180435     12.360869
     -3.188188      5.815436      5.815436     11.630871
     -3.178178      6.717394      6.717394     13.434788
     -3.168168      8.491810      8.491810     16.983620
     -3.158158     10.773740     10.773740     21.547480
     -3.148148     13.282659     13.282659     26.565318
     -3.138138     15.874775     15.874775     31.749550
     -3.128128     18.560497     18.560497     37.120995
     -3.118118     21.451191     21.451191     42.902382
     -3.108108     24.635189     24.635189     49.270379
     -3.098098     28.036802     28.036802     56.073604
     -3.088088     31.342039     31.342039     62.684078
     -3.078078     34.050930     34.050930     68.101860
     -3.068068     35.646072     35.646072     71.292145
     -3.058058     35.794364     35.794364     71.588729
     -3.048048     34.473978     34.473978     68.947957
     -3.038038     31.961325     31.961325     63.922651
     -3.028028     28.696150     28.696150     57.392300
     -3.018018     25.111644     25.111644     50.223287
     -3.008008     21.526247     21.526247     43.052493
     -2.997998     18.142850     18.142850     36.285701
     -2.987988     15.129002     15.129002     30.258004
     -2.977978     12.707397     12.707397     25.414795
     -2.967968     11.191565     11.191565     22.383130
     -2.957958     10.942148     10.942148     21.884297
     -2.947948     12.262087     12.262087     24.524173
     -2.937938     15.272389     15.272389     30.544779
     -2.927928     19.813462     19.813462     39.626925
     -2.917918     25.409846     25.409846     50.819692
     -2.907908     31.323215     31.323215     62.646431
     -2.897898     36.696094     36.696094     73.392187
     -2.887888     40.755720     40.755720     81.511440
     -2.877878     43.014685     43.014685     86.029369
     -2.867868     43.392051     43.392051     86.784102
     -2.857858     42.200673     42.200673     84.401346
     -2.847848     39.999852     39.999852     79.999703
     -2.837838     37.373614     37.373614     74.747227
     -2.827828     34.731302     34.731302     69.462604
     -2.817818     32.216712     32.216712     64.433424
     -2.807808     29.757045     29.757045     59.514090
     -2.797798     27.211602     27.211602     54.423203
     -2.787788     24.531086     24.531086     49.062171
     -2.777778     21.838921     21.838921     43.677842
     -2.767768     19.395383     19.395383     38.790766
     -2.757758     17.474958     17.474958     34.949916
     -2.747748     16.236755     16.236755     32.473511
     -2.737738     15.668201     15.668201     31.336403
     -2.727728     15.633346     15.633346     31.266691
     -2.717718     15.988606     15.988606     31.977211
     -2.707708     16.683909     16.683909     33.367818
     -2.697698     17.776511     17.776511     35.553023
     -2.687688     19.344884     19.344884     38.689768
     -2.677678     21.362498     21.362498     42.724995
     -2.667668     23.625758     23.625758     47.251516
     -2.657658     25.799240     25.799240     51.598480
     -2.647648     27.562312     27.562312     55.124624
     -2.637638     28.768220     28.768220     57.536440
     -2.627628     29.512988     29.512988     59.025975
     -2.617618     30.069083     30.069083     60.138166
     -2.607608     30.726986     30.726986     61.453972
     -2.597598     31.642565     31.642565     63.285130
     -2.587588     32.772128     32.772128     65.544256
     -2.577578     33.908636     33.908636     67.817271
     -2.567568     34.769230     34.769230     69.538459
     -2.557558     35.073011     35.073011     70.146022
     -2.547548     34.586839     34.586839     69.173677
     -2.537538     33.161278     33.161278     66.322557
     -2.527528     30.784939     30.784939     61.569879
     -2.517518     27.650308     27.650308     55.300615
     -2.507508     24.184873     24.184873     48.369747
     -2.497497     20.998217     20.998217     41.996434
     -2.487487     18.736281     18.736281     37.472563
     -2.477477     17.889723     17.889723     35.779447
     -2.467467     18.636088     18.636088     37.272175
     -2.457457     20.786470     20.786470     41.572939
     -2.447447     23.863373     23.863373     47.726747
     -2.437437     27.279907     27.279907     54.559813
     -2.427427     30.545750     30.545750     61.091500
     -2.417417     33.411206     33.411206     66.822413
     -2.407407     35.885290     35.885290     71.770580
     -2.397397     38.120015     38.120015     76.240030
     -2.387387     40.217768     40.217768     80.435537
     -2.377377     42.061321     42.061321     84.122642
     -2.367367     43.262797     43.262797     86.525595
     -2.357357     43.274562     43.274562     86.549124
     -2.347347     41.623267     41.623267     83.246534
     -2.337337     38.159443     38.159443     76.318887
     -2.327327     33.199702     33.199702     66.399403
     -2.317317     27.489804     27.489804     54.979608
     -2.307307     22.006271     22.006271     44.012542
     -2.297297     17.688380     17.688380     35.376759
     -2.287287     15.210317     15.210317     30.420635
     -2.277277     14.864134     14.864134     29.728267
     -2.267267     16.562395     16.562395     33.124791
     -2.257257     19.923710     19.923710     39.847419
     -2.247247     24.390830     24.390830     48.781661
     -2.237237     29.341765     29.341765     58.683530
     -2.227227     34.172784     34.172784     68.345569
     -2.217217     38.348612     38.348612     76.697224
     -2.207207     41.427751     41.427751     82.855501
     -2.197197     43.079746     43.079746     86.159493
     -2.187187     43.112199     43.112199     86.224399
     -2.177177     41.513272     41.513272     83.026545
     -2.167167     38.492159     38.492159     76.984318
     -2.157157     34.479855     34.479855     68.959711
     -2.147147     30.055945     30.055945     60.111889
     -2.137137     25.802395     25.802395     51.604790
     -2.127127     22.135143     22.135143     44.270286
     -2.117117     19.192452     19.192452     38.384904
     -2.107107     16.838953     16.838953     33.677906
     -2.097097     14.783260     14.783260     29.566520
     -2.087087     12.744743     12.744743     25.489486
     -2.077077     10.583128     10.583128     21.166256
     -2.067067      8.335080      8.335080     16.670160
     -2.057057      6.160050      6.160050     12.320100
     -2.047047      4.243527      4.243527      8.487055
     -2.037037      2.714819      2.714819      5.429637
     -2.027027      1.612680      1.612680      3.225360
     -2.017017      0.898800      0.898800      1.797601
     -2.007007      0.497992      0.497992      0.995983
     -1.996997      0.341813      0.341813      0.683625
     -1.986987      0.401975      0.401975      0.803950
     -1.976977      0.709807      0.709807      1.419614
     -1.966967      1.361337      1.361337      2.722674
     -1.956957      2.504878      2.504878      5.009756
     -1.946947      4.305286      4.305286      8.610573
     -1.936937      6.883172      6.883172     13.766345
     -1.926927     10.240436     10.240436     20.480872
     -1.916917     14.199836     14.199836     28.399671
     -1.906907     18.393322     18.393322     36.786644
     -1.896897     22.320667     22.320667     44.641334
     -1.886887     25.468073     25.468073     50.936145
     -1.876877     27.443631     27.443631     54.887262
     -1.866867     28.075559     28.075559     56.151118
     -1.856857     27.439080     27.439080     54.878159
     -1.846847     25.814156     25.814156     51.628312
     -1.836837     23.602475     23.602475     47.204950
     -1.826827     21.233315     21.233315     42.466630
     -1.816817     19.073803     19.073803     38.147607
     -1.806807     17.351196     17.351196     34.702392
     -1.796797     16.102376     16.102376     32.204751
     -1.786787     15.175114     15.175114     30.350228
     -1.776777     14.296015     14.296015     28.592029
     -1.766767     13.188203     13.188203     26.376405
     -1.756757     11.689288     11.689288     23.378577
     -1.746747      9.814633      9.814633     19.629267
     -1.736737      7.740381      7.740381     15.480761
     -1.726727      5.725292      5.725292     11.450585
     -1.716717      4.019472      4.019472      8.038945
     -1.706707      2.804538      2.804538      5.609076
     -1.696697      2.181032      2.181032      4.362063
     -1.686687      2.187172      2.187172      4.374343
     -1.676677      2.818089      2.818089      5.636177
     -1.666667      4.022478      4.022478      8.044955
     -1.656657      5.676564      5.676564     11.353128
     -1.646647      7.558709      7.558709     15.117419
     -1.636637      9.357246      9.357246     18.714493
     -1.626627     10.731529     10.731529     21.463058
