# EIG2DOS: Utility for SIESTA to obtain the electronic density of states
#  E. Artacho, Apr 1999, A. Garcia, Apr 2012
#  Nick R. Papior, Feb 2017
# ------------------------------------------
# Eigenvalues calculated from a non-polarized calculation
# Eigenvalues read from siesta.EIG
# Kpoint weights read from siesta.KP
# Using smearing parameter:   0.0500
# Using 1000 points in the energy range
# Selected bands: 1 to: 2981
# Emin, Emax in file for selected band(s):    -27.0766224    218.3172660
# Nbands, Nspin, Nk   =   2981     1     1
# E_F                 =    -4.2931 eV --> (shifted to ZERO)
# Broadening          =     0.0500 eV
#
#        E            N(up)  (=)   N(down)         Ntot
     -5.000000     39.742713     39.742713     79.485426
     -4.989990     41.185356     41.185356     82.370713
     -4.979980     42.129124     42.129124     84.258248
     -4.969970     42.352898     42.352898     84.705795
     -4.959960     41.719736     41.719736     83.439471
     -4.949950     40.223359     40.223359     80.446719
     -4.939940     38.006907     38.006907     76.013814
     -4.929930     35.365265     35.365265     70.730530
     -4.919920     32.738940     32.738940     65.477879
     -4.909910     30.693021     30.693021     61.386041
     -4.899900     29.858695     29.858695     59.717390
     -4.889890     30.810722     30.810722     61.621444
     -4.879880     33.877342     33.877342     67.754684
     -4.869870     38.930965     38.930965     77.861931
     -4.859860     45.261670     45.261670     90.523339
     -4.849850     51.643186     51.643186    103.286373
     -4.839840     56.631258     56.631258    113.262516
     -4.829830     59.009873     59.009873    118.019746
     -4.819820     58.198097     58.198097    116.396194
     -4.809810     54.426731     54.426731    108.853462
     -4.799800     48.605280     48.605280     97.210560
     -4.789790     41.958733     41.958733     83.917466
     -4.779780     35.618340     35.618340     71.236680
     -4.769770     30.340875     30.340875     60.681751
     -4.759760     26.430334     26.430334     52.860668
     -4.749750     23.823702     23.823702     47.647404
     -4.739740     22.246075     22.246075     44.492151
     -4.729730     21.351638     21.351638     42.703276
     -4.719720     20.811710     20.811710     41.623420
     -4.709710     20.351004     20.351004     40.702007
     -4.699700     19.753744     19.753744     39.507487
     -4.689690     18.866441     18.866441     37.732882
     -4.679680     17.618445     17.618445     35.236889
     -4.669670     16.065157     16.065157     32.130314
     -4.659660     14.436280     14.436280     28.872561
     -4.649650     13.155105     13.155105     26.310209
     -4.639640     12.796153     12.796153     25.592306
     -4.629630     13.967761     13.967761     27.935521
     -4.619620     17.134238     17.134238     34.268475
     -4.609610     22.420420     22.420420     44.840840
     -4.599600     29.464202     29.464202     58.928404
     -4.589590     37.390887     37.390887     74.781773
     -4.579580     44.961492     44.961492     89.922983
     -4.569570     50.886935     50.886935    101.773870
     -4.559560     54.218811     54.218811    108.437621
     -4.549550     54.669361     54.669361    109.338722
     -4.539540     52.721602     52.721602    105.443203
     -4.529530     49.472593     49.472593     98.945186
     -4.519520     46.268340     46.268340     92.536680
     -4.509510     44.275160     44.275160     88.550320
     -4.499499     44.145942     44.145942     88.291885
     -4.489489     45.881814     45.881814     91.763629
     -4.479479     48.900247     48.900247     97.800494
     -4.469469     52.248574     52.248574    104.497148
     -4.459459     54.875165     54.875165    109.750329
     -4.449449     55.884256     55.884256    111.768511
     -4.439439     54.729541     54.729541    109.459082
     -4.429429     51.323744     51.323744    102.647487
     -4.419419     46.052200     46.052200     92.104400
     -4.409409     39.687661     39.687661     79.375322
     -4.399399     33.219841     33.219841     66.439682
     -4.389389     27.634786     27.634786     55.269572
     -4.379379     23.696323     23.696323     47.392645
     -4.369369     21.785932     21.785932     43.571864
     -4.359359     21.845225     21.845225     43.690450
     -4.349349     23.438211     23.438211     46.876421
     -4.339339     25.914183     25.914183     51.828366
     -4.329329     28.617298     28.617298     57.234597
     -4.319319     31.071331     31.071331     62.142662
     -4.309309     33.079329     33.079329     66.158657
     -4.299299     34.714706     34.714706     69.429411
     -4.289289     36.222930     36.222930     72.445859
     -4.279279     37.878570     37.878570     75.757139
     -4.269269     39.843786     39.843786     79.687572
     -4.259259     42.063920     42.063920     84.127840
     -4.249249     44.229677     44.229677     88.459353
     -4.239239     45.832128     45.832128     91.664256
     -4.229229     46.317673     46.317673     92.635347
     -4.219219     45.304375     45.304375     90.608750
     -4.209209     42.769856     42.769856     85.539711
     -4.199199     39.108757     39.108757     78.217515
     -4.189189     35.011816     35.011816     70.023631
     -4.179179     31.215233     31.215233     62.430466
     -4.169169     28.244787     28.244787     56.489573
     -4.159159     26.280912     26.280912     52.561823
     -4.149149     25.198913     25.198913     50.397826
     -4.139139     24.742011     24.742011     49.484021
     -4.129129     24.721412     24.721412     49.442824
     -4.119119     25.134175     25.134175     50.268350
     -4.109109     26.137694     26.137694     52.275388
     -4.099099     27.893171     27.893171     55.786342
     -4.089089     30.360524     30.360524     60.721049
     -4.079079     33.164245     33.164245     66.328490
     -4.069069     35.628244     35.628244     71.256488
     -4.059059     36.994838     36.994838     73.989676
     -4.049049     36.735746     36.735746     73.471492
     -4.039039     34.797210     34.797210     69.594420
     -4.029029     31.647321     31.647321     63.294642
     -4.019019     28.102410     28.102410     56.204820
     -4.009009     25.031788     25.031788     50.063576
     -3.998999     23.095827     23.095827     46.191654
     -3.988989     22.629576     22.629576     45.259152
     -3.978979     23.681243     23.681243     47.362486
     -3.968969     26.127502     26.127502     52.255003
     -3.958959     29.770644     29.770644     59.541287
     -3.948949     34.373174     34.373174     68.746348
     -3.938939     39.652749     39.652749     79.305497
     -3.928929     45.289503     45.289503     90.579006
     -3.918919     50.972116     50.972116    101.944232
     -3.908909     56.457781     56.457781    112.915562
     -3.898899     61.591790     61.591790    123.183579
     -3.888889     66.251222     66.251222    132.502443
     -3.878879     70.231886     70.231886    140.463771
     -3.868869     73.149295     73.149295    146.298590
     -3.858859     74.435807     74.435807    148.871613
     -3.848849     73.474837     73.474837    146.949674
     -3.838839     69.838567     69.838567    139.677133
     -3.828829     63.528738     63.528738    127.057477
     -3.818819     55.101357     55.101357    110.202714
     -3.808809     45.600758     45.600758     91.201516
     -3.798799     36.314577     36.314577     72.629153
     -3.788789     28.441210     28.441210     56.882420
     -3.778779     22.793076     22.793076     45.586152
     -3.768769     19.632146     19.632146     39.264292
     -3.758759     18.672845     18.672845     37.345690
     -3.748749     19.227831     19.227831     38.455662
     -3.738739     20.437779     20.437779     40.875559
     -3.728729     21.518836     21.518836     43.037673
     -3.718719     21.969564     21.969564     43.939128
     -3.708709     21.692729     21.692729     43.385458
     -3.698699     21.003403     21.003403     42.006806
     -3.688689     20.516335     20.516335     41.032671
     -3.678679     20.934652     20.934652     41.869304
     -3.668669     22.795011     22.795011     45.590023
     -3.658659     26.249756     26.249756     52.499511
     -3.648649     30.967783     30.967783     61.935565
     -3.638639     36.201201     36.201201     72.402401
     -3.628629     41.000431     41.000431     82.000862
     -3.618619     44.494876     44.494876     88.989751
     -3.608609     46.127577     46.127577     92.255154
     -3.598599     45.760666     45.760666     91.521332
     -3.588589     43.636819     43.636819     87.273638
     -3.578579     40.245635     40.245635     80.491270
     -3.568569     36.165388     36.165388     72.330776
     -3.558559     31.929190     31.929190     63.858381
     -3.548549     27.931627     27.931627     55.863254
     -3.538539     24.377354     24.377354     48.754708
     -3.528529     21.277936     21.277936     42.555872
     -3.518519     18.504894     18.504894     37.009789
     -3.508509     15.889232     15.889232     31.778464
     -3.498498     13.330382     13.330382     26.660765
     -3.488488     10.865989     10.865989     21.731978
     -3.478478      8.671967      8.671967     17.343934
     -3.468468      6.997939      6.997939     13.995879
     -3.458458      6.071122      6.071122     12.142243
     -3.448448      6.007250      6.007250     12.014499
     -3.438438      6.755818      6.755818     13.511636
     -3.428428      8.093630      8.093630     16.187260
     -3.418418      9.672151      9.672151     19.344302
     -3.408408     11.114463     11.114463     22.228926
     -3.398398     12.139892     12.139892     24.279784
     -3.388388     12.674126     12.674126     25.348252
     -3.378378     12.896525     12.896525     25.793051
     -3.368368     13.196581     13.196581     26.393161
     -3.358358     14.051050     14.051050     28.102100
     -3.348348     15.868159     15.868159     31.736319
     -3.338338     18.853201     18.853201     37.706402
     -3.328328     22.929552     22.929552     45.859105
     -3.318318     27.721145     27.721145     55.442290
     -3.308308     32.590079     32.590079     65.180159
     -3.298298     36.729847     36.729847     73.459695
     -3.288288     39.319795     39.319795     78.639590
     -3.278278     39.727076     39.727076     79.454153
     -3.268268     37.701410     37.701410     75.402820
     -3.258258     33.479467     33.479467     66.958935
     -3.248248     27.735642     27.735642     55.471283
     -3.238238     21.384720     21.384720     42.769439
     -3.228228     15.317390     15.317390     30.634780
     -3.218218     10.179909     10.179909     20.359818
     -3.208208      6.276375      6.276375     12.552750
     -3.198198      3.603404      3.603404      7.206807
     -3.188188      1.969209      1.969209      3.938418
     -3.178178      1.131330      1.131330      2.262660
     -3.168168      0.905674      0.905674      1.811347
     -3.158158      1.229782      1.229782      2.459565
     -3.148148      2.182871      2.182871      4.365743
     -3.138138      3.967524      3.967524      7.935047
     -3.128128      6.851168      6.851168     13.702335
     -3.118118     11.063965     11.063965     22.127930
     -3.108108     16.663524     16.663524     33.327048
     -3.098098     23.404115     23.404115     46.808230
     -3.088088     30.672672     30.672672     61.345345
     -3.078078     37.552089     37.552089     75.104178
     -3.068068     43.029206     43.029206     86.058411
     -3.058058     46.291475     46.291475     92.582950
     -3.048048     46.992750     46.992750     93.985501
     -3.038038     45.361822     45.361822     90.723644
     -3.028028     42.094783     42.094783     84.189565
     -3.018018     38.080875     38.080875     76.161749
     -3.008008     34.095396     34.095396     68.190793
     -2.997998     30.600783     30.600783     61.201565
     -2.987988     27.728121     27.728121     55.456241
     -2.977978     25.413653     25.413653     50.827307
     -2.967968     23.594913     23.594913     47.189825
     -2.957958     22.357807     22.357807     44.715613
     -2.947948     21.962827     21.962827     43.925654
     -2.937938     22.740274     22.740274     45.480548
     -2.927928     24.904853     24.904853     49.809706
     -2.917918     28.378272     28.378272     56.756543
     -2.907908     32.710061     32.710061     65.420122
     -2.897898     37.148032     37.148032     74.296064
     -2.887888     40.843854     40.843854     81.687707
     -2.877878     43.115091     43.115091     86.230181
     -2.867868     43.654491     43.654491     87.308983
     -2.857858     42.597607     42.597607     85.195213
     -2.847848     40.422922     40.422922     80.845843
     -2.837838     37.734400     37.734400     75.468800
     -2.827828     35.027607     35.027607     70.055214
     -2.817818     32.542469     32.542469     65.084939
     -2.807808     30.258070     30.258070     60.516140
     -2.797798     28.012388     28.012388     56.024776
     -2.787788     25.669710     25.669710     51.339421
     -2.777778     23.241157     23.241157     46.482314
     -2.767768     20.897537     20.897537     41.795074
     -2.757758     18.879152     18.879152     37.758303
     -2.747748     17.367176     17.367176     34.734351
     -2.737738     16.400988     16.400988     32.801976
     -2.727728     15.893152     15.893152     31.786304
     -2.717718     15.728155     15.728155     31.456310
     -2.707708     15.873821     15.873821     31.747641
     -2.697698     16.423558     16.423558     32.847117
     -2.687688     17.532656     17.532656     35.065311
     -2.677678     19.284862     19.284862     38.569724
     -2.667668     21.578045     21.578045     43.156090
     -2.657658     24.112202     24.112202     48.224404
     -2.647648     26.499632     26.499632     52.999264
     -2.637638     28.436094     28.436094     56.872187
     -2.627628     29.828866     29.828866     59.657731
     -2.617618     30.804593     30.804593     61.609187
     -2.607608     31.599110     31.599110     63.198219
     -2.597598     32.406104     32.406104     64.812209
     -2.587588     33.277578     33.277578     66.555157
     -2.577578     34.118876     34.118876     68.237753
     -2.567568     34.749923     34.749923     69.499847
     -2.557558     34.971009     34.971009     69.942017
     -2.547548     34.597214     34.597214     69.194427
     -2.537538     33.477058     33.477058     66.954116
     -2.527528     31.534053     31.534053     63.068106
     -2.517518     28.841614     28.841614     57.683227
     -2.507508     25.690490     25.690490     51.380981
     -2.497497     22.584374     22.584374     45.168748
     -2.487487     20.129580     20.129580     40.259160
     -2.477477     18.848626     18.848626     37.697251
     -2.467467     18.999368     18.999368     37.998735
     -2.457457     20.486965     20.486965     40.973930
     -2.447447     22.913646     22.913646     45.827291
     -2.437437     25.746126     25.746126     51.492253
     -2.427427     28.525546     28.525546     57.051093
     -2.417417     31.024698     31.024698     62.049396
     -2.407407     33.280741     33.280741     66.561483
     -2.397397     35.488453     35.488453     70.976906
     -2.387387     37.804679     37.804679     75.609358
     -2.377377     40.159741     40.159741     80.319481
     -2.367367     42.174613     42.174613     84.349227
     -2.357357     43.239395     43.239395     86.478790
     -2.347347     42.734448     42.734448     85.468895
     -2.337337     40.303196     40.303196     80.606393
     -2.327327     36.052711     36.052711     72.105421
     -2.317317     30.587119     30.587119     61.174238
     -2.307307     24.857700     24.857700     49.715400
     -2.297297     19.897979     19.897979     39.795957
     -2.287287     16.554521     16.554521     33.109042
     -2.277277     15.306616     15.306616     30.613233
     -2.267267     16.212669     16.212669     32.425338
     -2.257257     18.966923     18.966923     37.933845
     -2.247247     23.022039     23.022039     46.044078
     -2.237237     27.730142     27.730142     55.460284
     -2.227227     32.463914     32.463914     64.927829
     -2.217217     36.692289     36.692289     73.384578
     -2.207207     40.003749     40.003749     80.007498
     -2.197197     42.094150     42.094150     84.188301
     -2.187187     42.754380     42.754380     85.508759
     -2.177177     41.889692     41.889692     83.779383
     -2.167167     39.571994     39.571994     79.143989
     -2.157157     36.086322     36.086322     72.172644
     -2.147147     31.915401     31.915401     63.830802
     -2.137137     27.632776     27.632776     55.265552
     -2.127127     23.733778     23.733778     47.467557
     -2.117117     20.483713     20.483713     40.967426
     -2.107107     17.864205     17.864205     35.728410
     -2.097097     15.645935     15.645935     31.291869
     -2.087087     13.543844     13.543844     27.087688
     -2.077077     11.368306     11.368306     22.736612
     -2.067067      9.098568      9.098568     18.197135
     -2.057057      6.858537      6.858537     13.717074
     -2.047047      4.830100      4.830100      9.660200
     -2.037037      3.162201      3.162201      6.324401
     -2.027027      1.919299      1.919299      3.838599
     -2.017017      1.079705      1.079705      2.159409
     -2.007007      0.567303      0.567303      1.134607
     -1.996997      0.292002      0.292002      0.584003
     -1.986987      0.181640      0.181640      0.363280
     -1.976977      0.200362      0.200362      0.400725
     -1.966967      0.356309      0.356309      0.712618
     -1.956957      0.702229      0.702229      1.404458
     -1.946947      1.328684      1.328684      2.657368
     -1.936937      2.345774      2.345774      4.691547
     -1.926927      3.850212      3.850212      7.700424
     -1.916917      5.881607      5.881607     11.763214
     -1.906907      8.381759      8.381759     16.763518
     -1.896897     11.176491     11.176491     22.352983
     -1.886887     13.994509     13.994509     27.989017
     -1.876877     16.522505     16.522505     33.045010
     -1.866867     18.479108     18.479108     36.958216
     -1.856857     19.682810     19.682810     39.365620
     -1.846847     20.093647     20.093647     40.187294
     -1.836837     19.818318     19.818318     39.636637
     -1.826827     19.076263     19.076263     38.152525
     -1.816817     18.130802     18.130802     36.261603
     -1.806807     17.201249     17.201249     34.402499
     -1.796797     16.388045     16.388045     32.776091
     -1.786787     15.649811     15.649811     31.299622
     -1.776777     14.853580     14.853580     29.707160
     -1.766767     13.879796     13.879796     27.759593
     -1.756757     12.726403     12.726403     25.452806
     -1.746747     11.549969     11.549969     23.099938
     -1.736737     10.614647     10.614647     21.229295
     -1.726727     10.172402     10.172402     20.344804
     -1.716717     10.337869     10.337869     20.675739
     -1.706707     11.025388     11.025388     22.050777
     -1.696697     11.982926     11.982926     23.965851
     -1.686687     12.905933     12.905933     25.811865
     -1.676677     13.570636     13.570636     27.141272
     -1.666667     13.914701     13.914701     27.829402
     -1.656657     14.022401     14.022401     28.044802
     -1.646647     14.027425     14.027425     28.054850
     -1.636637     13.996604     13.996604     27.993207
     -1.626627     13.869755     13.869755     27.739510
