# EIG2DOS: Utility for SIESTA to obtain the electronic density of states
#  E. Artacho, Apr 1999, A. Garcia, Apr 2012
#  Nick R. Papior, Feb 2017
# ------------------------------------------
# Eigenvalues calculated from a non-polarized calculation
# Eigenvalues read from siesta.EIG
# Kpoint weights read from siesta.KP
# Using smearing parameter:   0.0500
# Using 1000 points in the energy range
# Selected bands: 1 to: 2981
# Emin, Emax in file for selected band(s):    -27.1994494    218.3513520
# Nbands, Nspin, Nk   =   2981     1     1
# E_F                 =    -4.2571 eV --> (shifted to ZERO)
# Broadening          =     0.0500 eV
#
#        E            N(up)  (=)   N(down)         Ntot
     -5.000000     33.258561     33.258561     66.517122
     -4.989990     37.122337     37.122337     74.244675
     -4.979980     40.681652     40.681652     81.363305
     -4.969970     43.324308     43.324308     86.648615
     -4.959960     44.559311     44.559311     89.118621
     -4.949950     44.156501     44.156501     88.313002
     -4.939940     42.218284     42.218284     84.436569
     -4.929930     39.166286     39.166286     78.332573
     -4.919920     35.663157     35.663157     71.326313
     -4.909910     32.504433     32.504433     65.008866
     -4.899900     30.500106     30.500106     61.000213
     -4.889890     30.339362     30.339362     60.678725
     -4.879880     32.426855     32.426855     64.853711
     -4.869870     36.711351     36.711351     73.422701
     -4.859860     42.577813     42.577813     85.155627
     -4.849850     48.894996     48.894996     97.789992
     -4.839840     54.265434     54.265434    108.530868
     -4.829830     57.423776     57.423776    114.847552
     -4.819820     57.632369     57.632369    115.264737
     -4.809810     54.900026     54.900026    109.800053
     -4.799800     49.926890     49.926890     99.853780
     -4.789790     43.812969     43.812969     87.625938
     -4.779780     37.677020     37.677020     75.354040
     -4.769770     32.352049     32.352049     64.704098
     -4.759760     28.254010     28.254010     56.508021
     -4.749750     25.418297     25.418297     50.836594
     -4.739740     23.629551     23.629551     47.259103
     -4.729730     22.561379     22.561379     45.122759
     -4.719720     21.875900     21.875900     43.751801
     -4.709710     21.274281     21.274281     42.548561
     -4.699700     20.516060     20.516060     41.032120
     -4.689690     19.433068     19.433068     38.866136
     -4.679680     17.956855     17.956855     35.913709
     -4.669670     16.161656     16.161656     32.323313
     -4.659660     14.305683     14.305683     28.611365
     -4.649650     12.842504     12.842504     25.685007
     -4.639640     12.377971     12.377971     24.755943
     -4.629630     13.563209     13.563209     27.126419
     -4.619620     16.932921     16.932921     33.865843
     -4.609610     22.717406     22.717406     45.434812
     -4.599600     30.677612     30.677612     61.355223
     -4.589590     40.030497     40.030497     80.060993
     -4.579580     49.529623     49.529623     99.059245
     -4.569570     57.725058     57.725058    115.450115
     -4.559560     63.350561     63.350561    126.701123
     -4.549550     65.709082     65.709082    131.418164
     -4.539540     64.898705     64.898705    129.797411
     -4.529530     61.769677     61.769677    123.539354
     -4.519520     57.614225     57.614225    115.228449
     -4.509510     53.710383     53.710383    107.420767
     -4.499499     50.905836     50.905836    101.811671
     -4.489489     49.403508     49.403508     98.807015
     -4.479479     48.811625     48.811625     97.623251
     -4.469469     48.401314     48.401314     96.802627
     -4.459459     47.436001     47.436001     94.872003
     -4.449449     45.432513     45.432513     90.865026
     -4.439439     42.273832     42.273832     84.547663
     -4.429429     38.176365     38.176365     76.352729
     -4.419419     33.573967     33.573967     67.147933
     -4.409409     28.991932     28.991932     57.983863
     -4.399399     24.952834     24.952834     49.905669
     -4.389389     21.912568     21.912568     43.825137
     -4.379379     20.202251     20.202251     40.404502
     -4.369369     19.963572     19.963572     39.927144
     -4.359359     21.096890     21.096890     42.193780
     -4.349349     23.261925     23.261925     46.523850
     -4.339339     25.958363     25.958363     51.916727
     -4.329329     28.673061     28.673061     57.346122
     -4.319319     31.039735     31.039735     62.079470
     -4.309309     32.944239     32.944239     65.888479
     -4.299299     34.531181     34.531181     69.062363
     -4.289289     36.109420     36.109420     72.218839
     -4.279279     37.991310     37.991310     75.982620
     -4.269269     40.320691     40.320691     80.641382
     -4.259259     42.949482     42.949482     85.898964
     -4.249249     45.416228     45.416228     90.832456
     -4.239239     47.056845     47.056845     94.113691
     -4.229229     47.230841     47.230841     94.461683
     -4.219219     45.585267     45.585267     91.170535
     -4.209209     42.238286     42.238286     84.476572
     -4.199199     37.782614     37.782614     75.565229
     -4.189189     33.091473     33.091473     66.182945
     -4.179179     29.012824     29.012824     58.025647
     -4.169169     26.096708     26.096708     52.193416
     -4.159159     24.477471     24.477471     48.954942
     -4.149149     23.945203     23.945203     47.890406
     -4.139139     24.145047     24.145047     48.290094
     -4.129129     24.791001     24.791001     49.582002
     -4.119119     25.789142     25.789142     51.578285
     -4.109109     27.217885     27.217885     54.435771
     -4.099099     29.182585     29.182585     58.365170
     -4.089089     31.623817     31.623817     63.247635
     -4.079079     34.189994     34.189994     68.379988
     -4.069069     36.265026     36.265026     72.530052
     -4.059059     37.167326     37.167326     74.334652
     -4.049049     36.438519     36.438519     72.877039
     -4.039039     34.077010     34.077010     68.154020
     -4.029029     30.589921     30.589921     61.179841
     -4.019019     26.832747     26.832747     53.665493
     -4.009009     23.720351     23.720351     47.440702
     -3.998999     21.953060     21.953060     43.906121
     -3.988989     21.873924     21.873924     43.747849
     -3.978979     23.484575     23.484575     46.969150
     -3.968969     26.561020     26.561020     53.122041
     -3.958959     30.779711     30.779711     61.559422
     -3.948949     35.795829     35.795829     71.591658
     -3.938939     41.273462     41.273462     82.546925
     -3.928929     46.902627     46.902627     93.805254
     -3.918919     52.428109     52.428109    104.856218
     -3.908909     57.677570     57.677570    115.355139
     -3.898899     62.551261     62.551261    125.102523
     -3.888889     66.950349     66.950349    133.900699
     -3.878879     70.667479     70.667479    141.334958
     -3.868869     73.306289     73.306289    146.612578
     -3.858859     74.300873     74.300873    148.601746
     -3.848849     73.062393     73.062393    146.124786
     -3.838839     69.210541     69.210541    138.421081
     -3.828829     62.792188     62.792188    125.584375
     -3.818819     54.381662     54.381662    108.763324
     -3.808809     45.003685     45.003685     90.007370
     -3.798799     35.897126     35.897126     71.794252
     -3.788789     28.204716     28.204716     56.409432
     -3.778779     22.698155     22.698155     45.396309
     -3.768769     19.623893     19.623893     39.247786
     -3.758759     18.702521     18.702521     37.405041
     -3.748749     19.263048     19.263048     38.526096
     -3.738739     20.461255     20.461255     40.922509
     -3.728729     21.520945     21.520945     43.041891
     -3.718719     21.940865     21.940865     43.881730
     -3.708709     21.620750     21.620750     43.241501
     -3.698699     20.875324     20.875324     41.750648
     -3.688689     20.326659     20.326659     40.653318
     -3.678679     20.694565     20.694565     41.389129
     -3.668669     22.538192     22.538192     45.076385
     -3.658659     26.029246     26.029246     52.058491
     -3.648649     30.841599     30.841599     61.683198
     -3.638639     36.210444     36.210444     72.420888
     -3.628629     41.149517     41.149517     82.299035
     -3.618619     44.744842     44.744842     89.489684
     -3.608609     46.407856     46.407856     92.815713
     -3.598599     45.994905     45.994905     91.989811
     -3.588589     43.770390     43.770390     87.540780
     -3.578579     40.261921     40.261921     80.523843
     -3.568569     36.084940     36.084940     72.169879
     -3.558559     31.795403     31.795403     63.590805
     -3.548549     27.792358     27.792358     55.584715
     -3.538539     24.270975     24.270975     48.541950
     -3.528529     21.226991     21.226991     42.453981
     -3.518519     18.515513     18.515513     37.031026
     -3.508509     15.952885     15.952885     31.905770
     -3.498498     13.426043     13.426043     26.852086
     -3.488488     10.962893     10.962893     21.925787
     -3.478478      8.734002      8.734002     17.468005
     -3.468468      6.990220      6.990220     13.980440
     -3.458458      5.968423      5.968423     11.936845
     -3.448448      5.803050      5.803050     11.606099
     -3.438438      6.469560      6.469560     12.939120
     -3.428428      7.772679      7.772679     15.545358
     -3.418418      9.385049      9.385049     18.770098
     -3.408408     10.934698     10.934698     21.869397
     -3.398398     12.123929     12.123929     24.247858
     -3.388388     12.841202     12.841202     25.682404
     -3.378378     13.217889     13.217889     26.435778
     -3.368368     13.598170     13.598170     27.196340
     -3.358358     14.428767     14.428767     28.857535
     -3.348348     16.111952     16.111952     32.223905
     -3.338338     18.875482     18.875482     37.750964
     -3.328328     22.692824     22.692824     45.385648
     -3.318318     27.257633     27.257633     54.515266
     -3.308308     32.004877     32.004877     64.009754
     -3.298298     36.182937     36.182937     72.365874
     -3.288288     38.992668     38.992668     77.985336
     -3.278278     39.791169     39.791169     79.582339
     -3.268268     38.308645     38.308645     76.617290
     -3.258258     34.783813     34.783813     69.567625
     -3.248248     29.932686     29.932686     59.865372
     -3.238238     24.736916     24.736916     49.473832
     -3.228228     20.130369     20.130369     40.260738
     -3.218218     16.716259     16.716259     33.432519
     -3.208208     14.629910     14.629910     29.259820
     -3.198198     13.589921     13.589921     27.179842
     -3.188188     13.097779     13.097779     26.195558
     -3.178178     12.692708     12.692708     25.385417
     -3.168168     12.160946     12.160946     24.321892
     -3.158158     11.629351     11.629351     23.258702
     -3.148148     11.522212     11.522212     23.044423
     -3.138138     12.405595     12.405595     24.811190
     -3.128128     14.772090     14.772090     29.544180
     -3.118118     18.829441     18.829441     37.658883
     -3.108108     24.356015     24.356015     48.712030
     -3.098098     30.676625     30.676625     61.353250
     -3.088088     36.787053     36.787053     73.574106
     -3.078078     41.608341     41.608341     83.216682
     -3.068068     44.293500     44.293500     88.586999
     -3.058058     44.470844     44.470844     88.941689
     -3.048048     42.321875     42.321875     84.643751
     -3.038038     38.462337     38.462337     76.924673
     -3.028028     33.688716     33.688716     67.377433
     -3.018018     28.714632     28.714632     57.429265
     -3.008008     24.014607     24.014607     48.029214
     -2.997998     19.822973     19.822973     39.645945
     -2.987988     16.248879     16.248879     32.497759
     -2.977978     13.416747     13.416747     26.833493
     -2.967968     11.547845     11.547845     23.095690
     -2.957958     10.946143     10.946143     21.892285
     -2.947948     11.903456     11.903456     23.806912
     -2.937938     14.569054     14.569054     29.138109
     -2.927928     18.834605     18.834605     37.669210
     -2.917918     24.277868     24.277868     48.555736
     -2.907908     30.195039     30.195039     60.390078
     -2.897898     35.729531     35.729531     71.459061
     -2.887888     40.071719     40.071719     80.143439
     -2.877878     42.668729     42.668729     85.337457
     -2.867868     43.365656     43.365656     86.731313
     -2.857858     42.416859     42.416859     84.833719
     -2.847848     40.357045     40.357045     80.714089
     -2.837838     37.784575     37.784575     75.569149
     -2.827828     35.150974     35.150974     70.301948
     -2.817818     32.647254     32.647254     65.294508
     -2.807808     30.228819     30.228819     60.457638
     -2.797798     27.750833     27.750833     55.501667
     -2.787788     25.131916     25.131916     50.263832
     -2.777778     22.454954     22.454954     44.909908
     -2.767768     19.954354     19.954354     39.908707
     -2.757758     17.906281     17.906281     35.812562
     -2.747748     16.494132     16.494132     32.988263
     -2.737738     15.733343     15.733343     31.466686
     -2.727728     15.500374     15.500374     31.000749
     -2.717718     15.643294     15.643294     31.286588
     -2.707708     16.097562     16.097562     32.195125
     -2.697698     16.925706     16.925706     33.851413
     -2.687688     18.249423     18.249423     36.498846
     -2.677678     20.116861     20.116861     40.233721
     -2.667668     22.397012     22.397012     44.794025
     -2.657658     24.781454     24.781454     49.562907
     -2.647648     26.904985     26.904985     53.809970
     -2.637638     28.515811     28.515811     57.031621
     -2.627628     29.589262     29.589262     59.178524
     -2.617618     30.314497     30.314497     60.628994
     -2.607608     30.966966     30.966966     61.933932
     -2.597598     31.750587     31.750587     63.501173
     -2.587588     32.701890     32.701890     65.403780
     -2.577578     33.693137     33.693137     67.386273
     -2.567568     34.501332     34.501332     69.002663
     -2.557558     34.881284     34.881284     69.762568
     -2.547548     34.608790     34.608790     69.217580
     -2.537538     33.509120     33.509120     67.018241
     -2.527528     31.505354     31.505354     63.010707
     -2.517518     28.692645     28.692645     57.385289
     -2.507508     25.397439     25.397439     50.794879
     -2.497497     22.162112     22.162112     44.324225
     -2.487487     19.626776     19.626776     39.253551
     -2.477477     18.340218     18.340218     36.680435
     -2.467467     18.578950     18.578950     37.157899
     -2.457457     20.257425     20.257425     40.514851
     -2.447447     22.973079     22.973079     45.946158
     -2.437437     26.168932     26.168932     52.337863
     -2.427427     29.342956     29.342956     58.685913
     -2.417417     32.210775     32.210775     64.421550
     -2.407407     34.747848     34.747848     69.495695
     -2.397397     37.092818     37.092818     74.185637
     -2.387387     39.361295     39.361295     78.722591
     -2.377377     41.466796     41.466796     82.933591
     -2.367367     43.047852     43.047852     86.095704
     -2.357357     43.552833     43.552833     87.105666
     -2.347347     42.456747     42.456747     84.913494
     -2.337337     39.514561     39.514561     79.029123
     -2.327327     34.931131     34.931131     69.862262
     -2.317317     29.365077     29.365077     58.730153
     -2.307307     23.763988     23.763988     47.527975
     -2.297297     19.105487     19.105487     38.210974
     -2.287287     16.150511     16.150511     32.301022
     -2.277277     15.291085     15.291085     30.582170
     -2.267267     16.519684     16.519684     33.039367
     -2.257257     19.497462     19.497462     38.994924
     -2.247247     23.675273     23.675273     47.350546
     -2.237237     28.422434     28.422434     56.844867
     -2.227227     33.130835     33.130835     66.261670
     -2.217217     37.277614     37.277614     74.555229
     -2.207207     40.446845     40.446845     80.893690
     -2.197197     42.328194     42.328194     84.656388
     -2.187187     42.720588     42.720588     85.441176
     -2.177177     41.561262     41.561262     83.122523
     -2.167167     38.973556     38.973556     77.947111
     -2.157157     35.295844     35.295844     70.591688
     -2.147147     31.044830     31.044830     62.089659
     -2.137137     26.795215     26.795215     53.590429
     -2.127127     23.011851     23.011851     46.023702
     -2.117117     19.912436     19.912436     39.824872
     -2.107107     17.433664     17.433664     34.867328
     -2.097097     15.319251     15.319251     30.638501
     -2.087087     13.279734     13.279734     26.559468
     -2.077077     11.137710     11.137710     22.275420
     -2.067067      8.890127      8.890127     17.780253
     -2.057057      6.674337      6.674337     13.348673
     -2.047047      4.677148      4.677148      9.354295
     -2.037037      3.045166      3.045166      6.090332
     -2.027027      1.837318      1.837318      3.674637
     -2.017017      1.026931      1.026931      2.053862
     -2.007007      0.535187      0.535187      1.070374
     -1.996997      0.271233      0.271233      0.542467
     -1.986987      0.162653      0.162653      0.325307
     -1.976977      0.172364      0.172364      0.344728
     -1.966967      0.305656      0.305656      0.611312
     -1.956957      0.611592      0.611592      1.223185
     -1.946947      1.178785      1.178785      2.357570
     -1.936937      2.121174      2.121174      4.242347
     -1.926927      3.549117      3.549117      7.098235
     -1.916917      5.527065      5.527065     11.054131
     -1.906907      8.029331      8.029331     16.058661
     -1.896897     10.913853     10.913853     21.827706
     -1.886887     13.932870     13.932870     27.865740
     -1.876877     16.786486     16.786486     33.572972
     -1.866867     19.205662     19.205662     38.411324
     -1.856857     21.035435     21.035435     42.070870
     -1.846847     22.284919     22.284919     44.569838
     -1.836837     23.118954     23.118954     46.237908
     -1.826827     23.784415     23.784415     47.568829
     -1.816817     24.489428     24.489428     48.978856
     -1.806807     25.280665     25.280665     50.561331
     -1.796797     25.978963     25.978963     51.957927
     -1.786787     26.219427     26.219427     52.438853
     -1.776777     25.594518     25.594518     51.189036
     -1.766767     23.839567     23.839567     47.679134
     -1.756757     20.968960     20.968960     41.937921
     -1.746747     17.293937     17.293937     34.587874
     -1.736737     13.317856     13.317856     26.635713
     -1.726727      9.569386      9.569386     19.138772
     -1.716717      6.457583      6.457583     12.915167
     -1.706707      4.206221      4.206221      8.412443
     -1.696697      2.872333      2.872333      5.744665
     -1.686687      2.410900      2.410900      4.821800
     -1.676677      2.734917      2.734917      5.469833
     -1.666667      3.736897      3.736897      7.473793
     -1.656657      5.269447      5.269447     10.538895
     -1.646647      7.111216      7.111216     14.222432
     -1.636637      8.956858      8.956858     17.913715
     -1.626627     10.459208     10.459208     20.918416
