# EIG2DOS: Utility for SIESTA to obtain the electronic density of states
#  E. Artacho, Apr 1999, A. Garcia, Apr 2012
#  Nick R. Papior, Feb 2017
# ------------------------------------------
# Eigenvalues calculated from a non-polarized calculation
# Eigenvalues read from siesta.EIG
# Kpoint weights read from siesta.KP
# Using smearing parameter:   0.0500
# Using 1000 points in the energy range
# Selected bands: 1 to: 2981
# Emin, Emax in file for selected band(s):    -27.1262318    218.3718540
# Nbands, Nspin, Nk   =   2981     1     1
# E_F                 =    -4.2299 eV --> (shifted to ZERO)
# Broadening          =     0.0500 eV
#
#        E            N(up)  (=)   N(down)         Ntot
     -5.000000     32.200409     32.200409     64.400819
     -4.989990     36.657051     36.657051     73.314103
     -4.979980     40.775813     40.775813     81.551626
     -4.969970     43.897693     43.897693     87.795385
     -4.959960     45.462545     45.462545     90.925090
     -4.949950     45.191102     45.191102     90.382203
     -4.939940     43.185899     43.185899     86.371797
     -4.929930     39.921566     39.921566     79.843132
     -4.919920     36.146425     36.146425     72.292850
     -4.909910     32.742356     32.742356     65.484712
     -4.899900     30.576946     30.576946     61.153892
     -4.889890     30.351832     30.351832     60.703663
     -4.879880     32.440225     32.440225     64.880451
     -4.869870     36.733681     36.733681     73.467363
     -4.859860     42.562786     42.562786     85.125572
     -4.849850     48.772098     48.772098     97.544197
     -4.839840     53.982993     53.982993    107.965985
     -4.829830     56.982993     56.982993    113.965986
     -4.819820     57.095041     57.095041    114.190082
     -4.809810     54.367304     54.367304    108.734607
     -4.799800     49.502054     49.502054     99.004109
     -4.789790     43.567624     43.567624     87.135249
     -4.779780     37.634438     37.634438     75.268877
     -4.769770     32.489574     32.489574     64.979148
     -4.759760     28.517331     28.517331     57.034662
     -4.749750     25.738704     25.738704     51.477407
     -4.739740     23.938916     23.938916     47.877832
     -4.729730     22.803416     22.803416     45.606831
     -4.719720     22.013501     22.013501     44.027003
     -4.709710     21.292472     21.292472     42.584944
     -4.699700     20.420720     20.420720     40.841440
     -4.689690     19.247421     19.247421     38.494841
     -4.679680     17.718715     17.718715     35.437430
     -4.669670     15.922673     15.922673     31.845346
     -4.659660     14.129909     14.129909     28.259818
     -4.649650     12.798298     12.798298     25.596596
     -4.639640     12.517321     12.517321     25.034642
     -4.629630     13.887710     13.887710     27.775420
     -4.619620     17.355468     17.355468     34.710937
     -4.609610     23.040013     23.040013     46.080026
     -4.599600     30.611494     30.611494     61.222988
     -4.589590     39.275574     39.275574     78.551149
     -4.579580     47.902934     47.902934     95.805867
     -4.569570     55.291012     55.291012    110.582024
     -4.559560     60.483735     60.483735    120.967469
     -4.549550     63.035301     63.035301    126.070602
     -4.539540     63.114568     63.114568    126.229136
     -4.529530     61.406799     61.406799    122.813598
     -4.519520     58.850557     58.850557    117.701114
     -4.509510     56.311157     56.311157    112.622314
     -4.499499     54.312470     54.312470    108.624940
     -4.489489     52.920459     52.920459    105.840918
     -4.479479     51.807701     51.807701    103.615402
     -4.469469     50.454538     50.454538    100.909077
     -4.459459     48.391130     48.391130     96.782260
     -4.449449     45.379225     45.379225     90.758450
     -4.439439     41.474414     41.474414     82.948828
     -4.429429     36.974385     36.974385     73.948769
     -4.419419     32.308977     32.308977     64.617953
     -4.409409     27.936527     27.936527     55.873055
     -4.399399     24.279413     24.279413     48.558825
     -4.389389     21.688230     21.688230     43.376460
     -4.379379     20.403547     20.403547     40.807095
     -4.369369     20.500903     20.500903     41.001806
     -4.359359     21.841450     21.841450     43.682899
     -4.349349     24.072876     24.072876     48.145752
     -4.339339     26.710247     26.710247     53.420495
     -4.329329     29.282039     29.282039     58.564077
     -4.319319     31.484035     31.484035     62.968070
     -4.309309     33.272201     33.272201     66.544403
     -4.299299     34.850779     34.850779     69.701557
     -4.289289     36.556189     36.556189     73.112377
     -4.279279     38.677414     38.677414     77.354829
     -4.269269     41.277045     41.277045     82.554090
     -4.259259     44.082966     44.082966     88.165932
     -4.249249     46.507601     46.507601     93.015202
     -4.239239     47.813761     47.813761     95.627523
     -4.229229     47.384490     47.384490     94.768980
     -4.219219     44.992000     44.992000     89.983999
     -4.209209     40.938631     40.938631     81.877262
     -4.199199     35.989024     35.989024     71.978048
     -4.189189     31.112833     31.112833     62.225666
     -4.179179     27.154719     27.154719     54.309437
     -4.169169     24.582812     24.582812     49.165625
     -4.159159     23.418813     23.418813     46.837626
     -4.149149     23.355802     23.355802     46.711603
     -4.139139     23.982182     23.982182     47.964363
     -4.129129     24.993919     24.993919     49.987838
     -4.119119     26.298410     26.298410     52.596821
     -4.109109     27.971333     27.971333     55.942666
     -4.099099     30.096660     30.096660     60.193320
     -4.089089     32.577001     32.577001     65.154003
     -4.079079     35.024688     35.024688     70.049377
     -4.069069     36.814973     36.814973     73.629947
     -4.059059     37.302744     37.302744     74.605487
     -4.049049     36.109103     36.109103     72.218205
     -4.039039     33.332031     33.332031     66.664061
     -4.029029     29.566228     29.566228     59.132455
     -4.019019     25.717972     25.717972     51.435945
     -4.009009     22.708961     22.708961     45.417922
     -3.998999     21.211243     21.211243     42.422487
     -3.988989     21.519338     21.519338     43.038676
     -3.978979     23.577767     23.577767     47.155533
     -3.968969     27.103384     27.103384     54.206767
     -3.958959     31.717140     31.717140     63.434280
     -3.948949     37.031444     37.031444     74.062887
     -3.938939     42.691363     42.691363     85.382726
     -3.928929     48.397641     48.397641     96.795283
     -3.918919     53.929333     53.929333    107.858666
     -3.908909     59.152599     59.152599    118.305198
     -3.898899     63.986038     63.986038    127.972077
     -3.888889     68.313037     68.313037    136.626074
     -3.878879     71.875976     71.875976    143.751952
     -3.868869     74.220507     74.220507    148.441015
     -3.858859     74.750399     74.750399    149.500799
     -3.848849     72.902370     72.902370    145.804740
     -3.838839     68.382893     68.382893    136.765785
     -3.828829     61.364430     61.364430    122.728860
     -3.818819     52.544451     52.544451    105.088902
     -3.808809     43.026358     43.026358     86.052716
     -3.798799     34.058278     34.058278     68.116555
     -3.788789     26.723622     26.723622     53.447244
     -3.778779     21.689544     21.689544     43.379088
     -3.768769     19.086803     19.086803     38.173605
     -3.758759     18.540831     18.540831     37.081663
     -3.748749     19.326554     19.326554     38.653109
     -3.738739     20.593493     20.593493     41.186985
     -3.728729     21.601768     21.601768     43.203536
     -3.718719     21.915207     21.915207     43.830413
     -3.708709     21.508498     21.508498     43.016996
     -3.698699     20.760540     20.760540     41.521080
     -3.688689     20.328161     20.328161     40.656323
     -3.678679     20.924434     20.924434     41.848867
     -3.668669     23.059427     23.059427     46.118853
     -3.658659     26.826407     26.826407     53.652814
     -3.648649     31.816155     31.816155     63.632309
     -3.638639     37.204398     37.204398     74.408795
     -3.628629     41.989301     41.989301     83.978601
     -3.618619     45.288301     45.288301     90.576603
     -3.608609     46.576493     46.576493     93.152987
     -3.598599     45.782133     45.782133     91.564266
     -3.588589     43.228846     43.228846     86.457692
     -3.578579     39.480689     39.480689     78.961378
     -3.568569     35.167011     35.167011     70.334022
     -3.558559     30.839922     30.839922     61.679845
     -3.548549     26.881389     26.881389     53.762777
     -3.538539     23.460187     23.460187     46.920373
     -3.528529     20.541850     20.541850     41.083700
     -3.518519     17.955077     17.955077     35.910154
     -3.508509     15.500526     15.500526     31.001051
     -3.498498     13.062644     13.062644     26.125288
     -3.488488     10.676730     10.676730     21.353460
     -3.478478      8.523748      8.523748     17.047496
     -3.468468      6.861374      6.861374     13.722748
     -3.458458      5.926183      5.926183     11.852366
     -3.448448      5.845157      5.845157     11.690315
     -3.438438      6.581813      6.581813     13.163625
     -3.428428      7.928886      7.928886     15.857771
     -3.418418      9.552333      9.552333     19.104665
     -3.408408     11.083516     11.083516     22.167031
     -3.398398     12.239856     12.239856     24.479712
     -3.388388     12.933619     12.933619     25.867237
     -3.378378     13.321057     13.321057     26.642114
     -3.368368     13.763286     13.763286     27.526571
     -3.358358     14.709645     14.709645     29.419289
     -3.348348     16.549187     16.549187     33.098373
     -3.338338     19.482888     19.482888     38.965775
     -3.328328     23.447255     23.447255     46.894509
     -3.318318     28.092195     28.092195     56.184389
     -3.308308     32.807474     32.807474     65.614947
     -3.298298     36.804307     36.804307     73.608614
     -3.288288     39.265948     39.265948     78.531897
     -3.278278     39.557295     39.557295     79.114591
     -3.268268     37.434444     37.434444     74.868888
     -3.258258     33.161734     33.161734     66.323468
     -3.248248     27.466349     27.466349     54.932698
     -3.238238     21.336196     21.336196     42.672392
     -3.228228     15.745981     15.745981     31.491962
     -3.218218     11.423797     11.423797     22.847595
     -3.208208      8.732435      8.732435     17.464870
     -3.198198      7.671825      7.671825     15.343650
     -3.188188      7.961833      7.961833     15.923666
     -3.178178      9.160141      9.160141     18.320283
     -3.168168     10.791159     10.791159     21.582319
     -3.158158     12.475853     12.475853     24.951706
     -3.148148     14.043237     14.043237     28.086475
     -3.138138     15.585456     15.585456     31.170913
     -3.128128     17.417559     17.417559     34.835117
     -3.118118     19.934908     19.934908     39.869815
     -3.108108     23.412567     23.412567     46.825134
     -3.098098     27.829616     27.829616     55.659233
     -3.088088     32.799739     32.799739     65.599479
     -3.078078     37.644622     37.644622     75.289245
     -3.068068     41.582035     41.582035     83.164070
     -3.058058     43.950139     43.950139     87.900277
     -3.048048     44.378795     44.378795     88.757590
     -3.038038     42.850517     42.850517     85.701034
     -3.028028     39.649132     39.649132     79.298264
     -3.018018     35.242893     35.242893     70.485786
     -3.008008     30.166210     30.166210     60.332420
     -2.997998     24.945532     24.945532     49.891063
     -2.987988     20.076716     20.076716     40.153432
     -2.977978     16.029095     16.029095     32.058190
     -2.967968     13.241992     13.241992     26.483985
     -2.957958     12.091514     12.091514     24.183029
     -2.947948     12.825976     12.825976     25.651952
     -2.937938     15.486015     15.486015     30.972031
     -2.927928     19.837035     19.837035     39.674070
     -2.917918     25.347292     25.347292     50.694585
     -2.907908     31.241060     31.241060     62.482121
     -2.897898     36.636671     36.636671     73.273341
     -2.887888     40.744422     40.744422     81.488844
     -2.877878     43.063261     43.063261     86.126521
     -2.867868     43.499989     43.499989     86.999979
     -2.857858     42.356183     42.356183     84.712365
     -2.847848     40.181706     40.181706     80.363413
     -2.837838     37.554914     37.554914     75.109828
     -2.827828     34.885335     34.885335     69.770669
     -2.817818     32.323535     32.323535     64.647070
     -2.807808     29.808268     29.808268     59.616536
     -2.797798     27.211199     27.211199     54.422399
     -2.787788     24.492006     24.492006     48.984013
     -2.777778     21.777471     21.777471     43.554942
     -2.767768     19.326245     19.326245     38.652489
     -2.757758     17.408712     17.408712     34.817424
     -2.747748     16.179842     16.179842     32.359684
     -2.737738     15.623886     15.623886     31.247772
     -2.727728     15.602314     15.602314     31.204629
     -2.717718     15.968924     15.968924     31.937849
     -2.707708     16.671093     16.671093     33.342186
     -2.697698     17.764483     17.764483     35.528966
     -2.687688     19.327687     19.327687     38.655375
     -2.677678     21.335655     21.335655     42.671309
     -2.667668     23.586037     23.586037     47.172074
     -2.657658     25.742642     25.742642     51.485284
     -2.647648     27.481584     27.481584     54.963169
     -2.637638     28.652070     28.652070     57.304140
     -2.627628     29.348552     29.348552     58.697103
     -2.617618     29.847334     29.847334     59.694668
     -2.607608     30.448799     30.448799     60.897597
     -2.597598     31.322474     31.322474     62.644949
     -2.587588     32.437975     32.437975     64.875951
     -2.577578     33.597363     33.597363     67.194727
     -2.567568     34.520542     34.520542     69.041084
     -2.557558     34.922475     34.922475     69.844950
     -2.547548     34.559013     34.559013     69.118026
     -2.537538     33.263120     33.263120     66.526240
     -2.527528     31.000811     31.000811     62.001622
     -2.517518     27.941284     27.941284     55.882567
     -2.507508     24.494805     24.494805     48.989611
     -2.497497     21.266420     21.266420     42.532839
     -2.487487     18.913155     18.913155     37.826311
     -2.477477     17.949513     17.949513     35.899026
     -2.467467     18.581807     18.581807     37.163613
     -2.457457     20.645409     20.645409     41.290818
     -2.447447     23.675626     23.675626     47.351252
     -2.437437     27.084978     27.084978     54.169956
     -2.427427     30.372311     30.372311     60.744623
     -2.417417     33.272771     33.272771     66.545542
     -2.407407     35.781673     35.781673     71.563347
     -2.397397     38.042718     38.042718     76.085436
     -2.387387     40.157282     40.157282     80.314563
     -2.377377     42.014625     42.014625     84.029249
     -2.367367     43.238738     43.238738     86.477476
     -2.357357     43.294019     43.294019     86.588039
     -2.347347     41.712101     41.712101     83.424202
     -2.337337     38.336061     38.336061     76.672122
     -2.327327     33.463421     33.463421     66.926843
     -2.317317     27.817179     27.817179     55.634357
     -2.307307     22.358463     22.358463     44.716925
     -2.297297     18.026021     18.026021     36.052042
     -2.287287     15.507709     15.507709     31.015419
     -2.277277     15.115162     15.115162     30.230325
     -2.267267     16.775512     16.775512     33.551025
     -2.257257     20.109476     20.109476     40.218951
     -2.247247     24.549473     24.549473     49.098946
     -2.237237     29.458106     29.458106     58.916212
     -2.227227     34.221838     34.221838     68.443676
     -2.217217     38.309154     38.309154     76.618308
     -2.207207     41.296370     41.296370     82.592740
     -2.197197     42.877280     42.877280     85.754559
     -2.187187     42.878575     42.878575     85.757149
     -2.177177     41.293321     41.293321     82.586642
     -2.167167     38.319854     38.319854     76.639708
     -2.157157     34.368861     34.368861     68.737722
     -2.147147     30.000348     30.000348     60.000695
     -2.137137     25.785742     25.785742     51.571484
     -2.127127     22.141831     22.141831     44.283661
     -2.117117     19.215206     19.215206     38.430412
     -2.107107     16.879282     16.879282     33.758565
     -2.097097     14.846204     14.846204     29.692409
     -2.087087     12.832190     12.832190     25.664381
     -2.077077     10.689959     10.689959     21.379918
     -2.067067      8.449913      8.449913     16.899826
     -2.057057      6.269324      6.269324     12.538649
     -2.047047      4.336029      4.336029      8.672058
     -2.037037      2.784048      2.784048      5.568097
     -2.027027      1.655864      1.655864      3.311728
     -2.017017      0.912442      0.912442      1.824883
     -2.007007      0.469863      0.469863      0.939726
     -1.996997      0.238514      0.238514      0.477029
     -1.986987      0.150885      0.150885      0.301769
     -1.976977      0.176071      0.176071      0.352142
     -1.966967      0.325500      0.325500      0.651000
     -1.956957      0.653811      0.653811      1.307623
     -1.946947      1.254272      1.254272      2.508545
     -1.936937      2.244031      2.244031      4.488063
     -1.926927      3.734935      3.734935      7.469869
     -1.916917      5.792251      5.792251     11.584502
     -1.906907      8.393867      8.393867     16.787735
     -1.896897     11.409472     11.409472     22.818944
     -1.886887     14.615697     14.615697     29.231394
     -1.876877     17.747709     17.747709     35.495419
     -1.866867     20.568189     20.568189     41.136379
     -1.856857     22.923623     22.923623     45.847245
     -1.846847     24.763173     24.763173     49.526347
     -1.836837     26.113854     26.113854     52.227707
     -1.826827     27.026155     27.026155     54.052309
     -1.816817     27.516501     27.516501     55.033002
     -1.806807     27.533207     27.533207     55.066415
     -1.796797     26.962819     26.962819     53.925638
     -1.786787     25.677394     25.677394     51.354789
     -1.776777     23.605137     23.605137     47.210274
     -1.766767     20.793724     20.793724     41.587449
     -1.756757     17.435514     17.435514     34.871028
     -1.746747     13.839454     13.839454     27.678908
     -1.736737     10.359782     10.359782     20.719565
     -1.726727      7.312682      7.312682     14.625363
     -1.716717      4.916497      4.916497      9.832993
     -1.706707      3.276273      3.276273      6.552547
     -1.696697      2.408489      2.408489      4.816979
     -1.686687      2.281425      2.281425      4.562851
     -1.676677      2.841565      2.841565      5.683131
     -1.666667      4.008554      4.008554      8.017108
     -1.656657      5.643897      5.643897     11.287795
     -1.646647      7.519875      7.519875     15.039750
     -1.636637      9.322566      9.322566     18.645131
     -1.626627     10.709487     10.709487     21.418975
