# EIG2DOS: Utility for SIESTA to obtain the electronic density of states
#  E. Artacho, Apr 1999, A. Garcia, Apr 2012
#  Nick R. Papior, Feb 2017
# ------------------------------------------
# Eigenvalues calculated from a non-polarized calculation
# Eigenvalues read from siesta.EIG
# Kpoint weights read from siesta.KP
# Using smearing parameter:   0.0500
# Using 1000 points in the energy range
# Selected bands: 1 to: 2981
# Emin, Emax in file for selected band(s):    -27.1538606    218.3790340
# Nbands, Nspin, Nk   =   2981     1     1
# E_F                 =    -4.2192 eV --> (shifted to ZERO)
# Broadening          =     0.0500 eV
#
#        E            N(up)  (=)   N(down)         Ntot
     -5.000000     33.801519     33.801519     67.603038
     -4.989990     38.442961     38.442961     76.885922
     -4.979980     42.465098     42.465098     84.930196
     -4.969970     45.179231     45.179231     90.358463
     -4.959960     46.094952     46.094952     92.189905
     -4.949950     45.082864     45.082864     90.165729
     -4.939940     42.422337     42.422337     84.844675
     -4.929930     38.734091     38.734091     77.468182
     -4.919920     34.845809     34.845809     69.691618
     -4.909910     31.644860     31.644860     63.289719
     -4.899900     29.940776     29.940776     59.881553
     -4.889890     30.326665     30.326665     60.653329
     -4.879880     33.029413     33.029413     66.058826
     -4.869870     37.778226     37.778226     75.556452
     -4.859860     43.764645     43.764645     87.529290
     -4.849850     49.767045     49.767045     99.534091
     -4.839840     54.448977     54.448977    108.897955
     -4.829830     56.744482     56.744482    113.488965
     -4.819820     56.177566     56.177566    112.355132
     -4.809810     52.977381     52.977381    105.954761
     -4.799800     47.943789     47.943789     95.887577
     -4.789790     42.135846     42.135846     84.271691
     -4.779780     36.528771     36.528771     73.057542
     -4.769770     31.775939     31.775939     63.551877
     -4.759760     28.138171     28.138171     56.276343
     -4.749750     25.556078     25.556078     51.112155
     -4.739740     23.790216     23.790216     47.580432
     -4.729730     22.552918     22.552918     45.105837
     -4.719720     21.587814     21.587814     43.175627
     -4.709710     20.692770     20.692770     41.385541
     -4.699700     19.711464     19.711464     39.422928
     -4.689690     18.529968     18.529968     37.059936
     -4.679680     17.105000     17.105000     34.210000
     -4.669670     15.524012     15.524012     31.048023
     -4.659660     14.068000     14.068000     28.135999
     -4.649650     13.232930     13.232930     26.465859
     -4.639640     13.673137     13.673137     27.346274
     -4.629630     16.054969     16.054969     32.109939
     -4.619620     20.841217     20.841217     41.682433
     -4.609610     28.060591     28.060591     56.121182
     -4.599600     37.145939     37.145939     74.291879
     -4.589590     46.933863     46.933863     93.867726
     -4.579580     55.883661     55.883661    111.767322
     -4.569570     62.487988     62.487988    124.975976
     -4.559560     65.743288     65.743288    131.486577
     -4.549550     65.487642     65.487642    130.975284
     -4.539540     62.447771     62.447771    124.895542
     -4.529530     57.960801     57.960801    115.921602
     -4.519520     53.485642     53.485642    106.971284
     -4.509510     50.110856     50.110856    100.221712
     -4.499499     48.253927     48.253927     96.507855
     -4.489489     47.645452     47.645452     95.290904
     -4.479479     47.561048     47.561048     95.122096
     -4.469469     47.169308     47.169308     94.338616
     -4.459459     45.842673     45.842673     91.685347
     -4.449449     43.325701     43.325701     86.651402
     -4.439439     39.737410     39.737410     79.474821
     -4.429429     35.457963     35.457963     70.915927
     -4.419419     30.982607     30.982607     61.965215
     -4.409409     26.809470     26.809470     53.618940
     -4.399399     23.380531     23.380531     46.761061
     -4.389389     21.051216     21.051216     42.102431
     -4.379379     20.053009     20.053009     40.106018
     -4.369369     20.439475     20.439475     40.878950
     -4.359359     22.044400     22.044400     44.088801
     -4.349349     24.496919     24.496919     48.993838
     -4.339339     27.315764     27.315764     54.631527
     -4.329329     30.057782     30.057782     60.115564
     -4.319319     32.458272     32.458272     64.916545
     -4.309309     34.498411     34.498411     68.996822
     -4.299299     36.368093     36.368093     72.736186
     -4.289289     38.338593     38.338593     76.677186
     -4.279279     40.594520     40.594520     81.189040
     -4.269269     43.088546     43.088546     86.177093
     -4.259259     45.478117     45.478117     90.956235
     -4.249249     47.183458     47.183458     94.366916
     -4.239239     47.567947     47.567947     95.135894
     -4.229229     46.188028     46.188028     92.376055
     -4.219219     43.011837     43.011837     86.023674
     -4.209209     38.498360     38.498360     76.996720
     -4.199199     33.482006     33.482006     66.964011
     -4.189189     28.901223     28.901223     57.802446
     -4.179179     25.490699     25.490699     50.981398
     -4.169169     23.574763     23.574763     47.149525
     -4.159159     23.044799     23.044799     46.089597
     -4.149149     23.510608     23.510608     47.021216
     -4.139139     24.536685     24.536685     49.073371
     -4.129129     25.844729     25.844729     51.689458
     -4.119119     27.388849     27.388849     54.777698
     -4.109109     29.273619     29.273619     58.547238
     -4.099099     31.562122     31.562122     63.124244
     -4.089089     34.081875     34.081875     68.163751
     -4.079079     36.350006     36.350006     72.700013
     -4.069069     37.686960     37.686960     75.373920
     -4.059059     37.486049     37.486049     74.972098
     -4.049049     35.509168     35.509168     71.018335
     -4.039039     32.051011     32.051011     64.102022
     -4.029029     27.880225     27.880225     55.760450
     -4.019019     23.987163     23.987163     47.974326
     -4.009009     21.266949     21.266949     42.533897
     -3.998999     20.284034     20.284034     40.568068
     -3.988989     21.199510     21.199510     42.399020
     -3.978979     23.846440     23.846440     47.692879
     -3.968969     27.873420     27.873420     55.746840
     -3.958959     32.873263     32.873263     65.746525
     -3.948949     38.457883     38.457883     76.915767
     -3.938939     44.290009     44.290009     88.580019
     -3.928929     50.100359     50.100359    100.200719
     -3.918919     55.700304     55.700304    111.400609
     -3.908909     60.971575     60.971575    121.943150
     -3.898899     65.810232     65.810232    131.620464
     -3.888889     70.032128     70.032128    140.064257
     -3.878879     73.288720     73.288720    146.577440
     -3.868869     75.059011     75.059011    150.118023
     -3.858859     74.755913     74.755913    149.511825
     -3.848849     71.925910     71.925910    143.851820
     -3.838839     66.464734     66.464734    132.929468
     -3.828829     58.752205     58.752205    117.504409
     -3.818819     49.638045     49.638045     99.276089
     -3.808809     40.271846     40.271846     80.543691
     -3.798799     31.833156     31.833156     63.666312
     -3.788789     25.252883     25.252883     50.505767
     -3.778779     21.013058     21.013058     42.026117
     -3.768769     19.077055     19.077055     38.154110
     -3.758759     18.956781     18.956781     37.913563
     -3.748749     19.885737     19.885737     39.771474
     -3.738739     21.045876     21.045876     42.091753
     -3.728729     21.790913     21.790913     43.581826
     -3.718719     21.814143     21.814143     43.628287
     -3.708709     21.221161     21.221161     42.442322
     -3.698699     20.486131     20.486131     40.972262
     -3.688689     20.295296     20.295296     40.590592
     -3.678679     21.312289     21.312289     42.624577
     -3.668669     23.930576     23.930576     47.861152
     -3.658659     28.095876     28.095876     56.191753
     -3.648649     33.270411     33.270411     66.540822
     -3.638639     38.564603     38.564603     77.129206
     -3.628629     42.993931     42.993931     85.987862
     -3.618619     45.762336     45.762336     91.524672
     -3.608609     46.463338     46.463338     92.926676
     -3.598599     45.134725     45.134725     90.269450
     -3.588589     42.174615     42.174615     84.349230
     -3.578579     38.180453     38.180453     76.360906
     -3.568569     33.780643     33.780643     67.561286
     -3.558559     29.501257     29.501257     59.002514
     -3.548549     25.680680     25.680680     51.361360
     -3.538539     22.435275     22.435275     44.870549
     -3.528529     19.682379     19.682379     39.364757
     -3.518519     17.221472     17.221472     34.442945
     -3.508509     14.851814     14.851814     29.703627
     -3.498498     12.481194     12.481194     24.962387
     -3.488488     10.179092     10.179092     20.358184
     -3.478478      8.154155      8.154155     16.308309
     -3.468468      6.672497      6.672497     13.344995
     -3.458458      5.955532      5.955532     11.911064
     -3.448448      6.094843      6.094843     12.189687
     -3.438438      7.007450      7.007450     14.014899
     -3.428428      8.442154      8.442154     16.884309
     -3.418418     10.039952     10.039952     20.079904
     -3.408408     11.440605     11.440605     22.881210
     -3.398398     12.408459     12.408459     24.816918
     -3.388388     12.932010     12.932010     25.864020
     -3.378378     13.251117     13.251117     26.502235
     -3.368368     13.791707     13.791707     27.583415
     -3.358358     15.028426     15.028426     30.056851
     -3.348348     17.325534     17.325534     34.651068
     -3.338338     20.807633     20.807633     41.615266
     -3.328328     25.289819     25.289819     50.579638
     -3.318318     30.274383     30.274383     60.548765
     -3.308308     35.015228     35.015228     70.030457
     -3.298298     38.655042     38.655042     77.310085
     -3.288288     40.430116     40.430116     80.860233
     -3.278278     39.901158     39.901158     79.802315
     -3.268268     37.125878     37.125878     74.251755
     -3.258258     32.682301     32.682301     65.364602
     -3.248248     27.504487     27.504487     55.008974
     -3.238238     22.582534     22.582534     45.165067
     -3.228228     18.650403     18.650403     37.300806
     -3.218218     15.992167     15.992167     31.984334
     -3.208208     14.437194     14.437194     28.874389
     -3.198198     13.525995     13.525995     27.051990
     -3.188188     12.759514     12.759514     25.519028
     -3.178178     11.824869     11.824869     23.649738
     -3.168168     10.719422     10.719422     21.438845
     -3.158158      9.749212      9.749212     19.498425
     -3.148148      9.426348      9.426348     18.852697
     -3.138138     10.311704     10.311704     20.623408
     -3.128128     12.844125     12.844125     25.688250
     -3.118118     17.184049     17.184049     34.368098
     -3.108108     23.098006     23.098006     46.196011
     -3.098098     29.922365     29.922365     59.844730
     -3.088088     36.648620     36.648620     73.297239
     -3.078078     42.143315     42.143315     84.286630
     -3.068068     45.452682     45.452682     90.905363
     -3.058058     46.080066     46.080066     92.160133
     -3.048048     44.113068     44.113068     88.226135
     -3.038038     40.139980     40.139980     80.279959
     -3.028028     35.001781     35.001781     70.003561
     -3.018018     29.508877     29.508877     59.017754
     -3.008008     24.256293     24.256293     48.512586
     -2.997998     19.597644     19.597644     39.195289
     -2.987988     15.741538     15.741538     31.483075
     -2.977978     12.877147     12.877147     25.754293
     -2.967968     11.243985     11.243985     22.487970
     -2.957958     11.111812     11.111812     22.223624
     -2.947948     12.688823     12.688823     25.377646
     -2.937938     16.004115     16.004115     32.008230
     -2.927928     20.814188     20.814188     41.628375
     -2.917918     26.574599     26.574599     53.149198
     -2.907908     32.502197     32.502197     65.004394
     -2.897898     37.727794     37.727794     75.455589
     -2.887888     41.503994     41.503994     83.007988
     -2.877878     43.400360     43.400360     86.800720
     -2.867868     43.408620     43.408620     86.817239
     -2.857858     41.907695     41.907695     83.815390
     -2.847848     39.496112     39.496112     78.992223
     -2.837838     36.761165     36.761165     73.522330
     -2.827828     34.086264     34.086264     68.172528
     -2.817818     31.579367     31.579367     63.158734
     -2.807808     29.143270     29.143270     58.286541
     -2.797798     26.635573     26.635573     53.271146
     -2.787788     24.023007     24.023007     48.046013
     -2.777778     21.445554     21.445554     42.891109
     -2.767768     19.163267     19.163267     38.326533
     -2.757758     17.428750     17.428750     34.857500
     -2.747748     16.369681     16.369681     32.739363
     -2.737738     15.954075     15.954075     31.908150
     -2.727728     16.053896     16.053896     32.107791
     -2.717718     16.556071     16.556071     33.112141
     -2.707708     17.437780     17.437780     34.875560
     -2.697698     18.748526     18.748526     37.497051
     -2.687688     20.509920     20.509920     41.019841
     -2.677678     22.608774     22.608774     45.217548
     -2.667668     24.772025     24.772025     49.544050
     -2.657658     26.659558     26.659558     53.319116
     -2.647648     28.026922     28.026922     56.053845
     -2.637638     28.854729     28.854729     57.709459
     -2.627628     29.357484     29.357484     58.714967
     -2.617618     29.862533     29.862533     59.725066
     -2.607608     30.633448     30.633448     61.266895
     -2.597598     31.741122     31.741122     63.482244
     -2.587588     33.043140     33.043140     66.086280
     -2.577578     34.255989     34.255989     68.511978
     -2.567568     35.055937     35.055937     70.111875
     -2.557558     35.154249     35.154249     70.308498
     -2.547548     34.339976     34.339976     68.679952
     -2.537538     32.518890     32.518890     65.037780
     -2.527528     29.768374     29.768374     59.536748
     -2.517518     26.388309     26.388309     52.776618
     -2.507508     22.899147     22.899147     45.798294
     -2.497497     19.950986     19.950986     39.901973
     -2.487487     18.155178     18.155178     36.310355
     -2.477477     17.898753     17.898753     35.797506
     -2.467467     19.219978     19.219978     38.439955
     -2.457457     21.801417     21.801417     43.602835
     -2.447447     25.088330     25.088330     50.176661
     -2.437437     28.487384     28.487384     56.974768
     -2.427427     31.565104     31.565104     63.130209
     -2.417417     34.162016     34.162016     68.324033
     -2.407407     36.371438     36.371438     72.742876
     -2.397397     38.391044     38.391044     76.782088
     -2.387387     40.316901     40.316901     80.633802
     -2.377377     41.984753     41.984753     83.969506
     -2.367367     42.950338     42.950338     85.900676
     -2.357357     42.637927     42.637927     85.275854
     -2.347347     40.599609     40.599609     81.199218
     -2.337337     36.763045     36.763045     73.526089
     -2.327327     31.543808     31.543808     63.087617
     -2.317317     25.766067     25.766067     51.532134
     -2.307307     20.432400     20.432400     40.864800
     -2.297297     16.450483     16.450483     32.900965
     -2.287287     14.425309     14.425309     28.850617
     -2.277277     14.572426     14.572426     29.144853
     -2.267267     16.743630     16.743630     33.487260
     -2.257257     20.519337     20.519337     41.038673
     -2.247247     25.319776     25.319776     50.639553
     -2.237237     30.504525     30.504525     61.009049
     -2.227227     35.448323     35.448323     70.896647
     -2.217217     39.593103     39.593103     79.186207
     -2.207207     42.483518     42.483518     84.967037
     -2.197197     43.798054     43.798054     87.596108
     -2.187187     43.386387     43.386387     86.772775
     -2.177177     41.311339     41.311339     82.622677
     -2.167167     37.873492     37.873492     75.746984
     -2.157157     33.583444     33.583444     67.166888
     -2.147147     29.058617     29.058617     58.117234
     -2.137137     24.861314     24.861314     49.722627
     -2.127127     21.339543     21.339543     42.679087
     -2.117117     18.547046     18.547046     37.094093
     -2.107107     16.285223     16.285223     32.570445
     -2.097097     14.244688     14.244688     28.489377
     -2.087087     12.170719     12.170719     24.341438
     -2.077077      9.970422      9.970422     19.940843
     -2.067067      7.721269      7.721269     15.442538
     -2.057057      5.598932      5.598932     11.197864
     -2.047047      3.779084      3.779084      7.558169
     -2.037037      2.366040      2.366040      4.732081
     -2.027027      1.371887      1.371887      2.743774
     -2.017017      0.737951      0.737951      1.475901
     -2.007007      0.374504      0.374504      0.749007
     -1.996997      0.197148      0.197148      0.394296
     -1.986987      0.150301      0.150301      0.300603
     -1.976977      0.219042      0.219042      0.438084
     -1.966967      0.434732      0.434732      0.869464
     -1.956957      0.877582      0.877582      1.755165
     -1.946947      1.674085      1.674085      3.348170
     -1.936937      2.983126      2.983126      5.966251
     -1.926927      4.964793      4.964793      9.929586
     -1.916917      7.731519      7.731519     15.463037
     -1.906907     11.290308     11.290308     22.580615
     -1.896897     15.493070     15.493070     30.986140
     -1.886887     20.015420     20.015420     40.030841
     -1.876877     24.381045     24.381045     48.762090
     -1.866867     28.039240     28.039240     56.078481
     -1.856857     30.487517     30.487517     60.975033
     -1.846847     31.409969     31.409969     62.819939
     -1.836837     30.782162     30.782162     61.564325
     -1.826827     28.889725     28.889725     57.779450
     -1.816817     26.234799     26.234799     52.469599
     -1.806807     23.357769     23.357769     46.715539
     -1.796797     20.652159     20.652159     41.304318
     -1.786787     18.261245     18.261245     36.522490
     -1.776777     16.101899     16.101899     32.203798
     -1.766767     13.989501     13.989501     27.979003
     -1.756757     11.785006     11.785006     23.570012
     -1.746747      9.484697      9.484697     18.969395
     -1.736737      7.219648      7.219648     14.439297
     -1.726727      5.188770      5.188770     10.377540
     -1.716717      3.579248      3.579248      7.158496
     -1.706707      2.518730      2.518730      5.037460
     -1.696697      2.070376      2.070376      4.140752
     -1.686687      2.251092      2.251092      4.502185
     -1.676677      3.043006      3.043006      6.086013
     -1.666667      4.380463      4.380463      8.760925
     -1.656657      6.119096      6.119096     12.238191
     -1.646647      8.014363      8.014363     16.028725
     -1.636637      9.740888      9.740888     19.481776
     -1.626627     10.966158     10.966158     21.932316
