# EIG2DOS: Utility for SIESTA to obtain the electronic density of states
#  E. Artacho, Apr 1999, A. Garcia, Apr 2012
#  Nick R. Papior, Feb 2017
# ------------------------------------------
# Eigenvalues calculated from a non-polarized calculation
# Eigenvalues read from siesta.EIG
# Kpoint weights read from siesta.KP
# Using smearing parameter:   0.0500
# Using 1000 points in the energy range
# Selected bands: 1 to: 2981
# Emin, Emax in file for selected band(s):    -27.1000720    218.3534160
# Nbands, Nspin, Nk   =   2981     1     1
# E_F                 =    -4.2516 eV --> (shifted to ZERO)
# Broadening          =     0.0500 eV
#
#        E            N(up)  (=)   N(down)         Ntot
     -5.000000     35.595010     35.595010     71.190019
     -4.989990     39.174153     39.174153     78.348306
     -4.979980     41.943335     41.943335     83.886671
     -4.969970     43.492872     43.492872     86.985744
     -4.959960     43.593488     43.593488     87.186976
     -4.949950     42.263896     42.263896     84.527791
     -4.939940     39.777905     39.777905     79.555809
     -4.929930     36.622104     36.622104     73.244208
     -4.919920     33.430659     33.430659     66.861319
     -4.909910     30.914087     30.914087     61.828174
     -4.899900     29.773697     29.773697     59.547394
     -4.889890     30.577408     30.577408     61.154817
     -4.879880     33.589514     33.589514     67.179028
     -4.869870     38.596896     38.596896     77.193792
     -4.859860     44.824157     44.824157     89.648314
     -4.849850     51.031861     51.031861    102.063723
     -4.839840     55.821571     55.821571    111.643142
     -4.829830     58.057886     58.057886    116.115773
     -4.819820     57.232879     57.232879    114.465759
     -4.809810     53.606442     53.606442    107.212885
     -4.799800     48.062426     48.062426     96.124852
     -4.789790     41.761695     41.761695     83.523390
     -4.779780     35.761576     35.761576     71.523152
     -4.769770     30.758450     30.758450     61.516899
     -4.759760     27.019284     27.019284     54.038569
     -4.749750     24.467149     24.467149     48.934297
     -4.739740     22.833240     22.833240     45.666480
     -4.729730     21.795084     21.795084     43.590168
     -4.719720     21.060089     21.060089     42.120178
     -4.709710     20.393487     20.393487     40.786974
     -4.699700     19.614589     19.614589     39.229179
     -4.689690     18.593665     18.593665     37.187331
     -4.679680     17.274206     17.274206     34.548413
     -4.669670     15.723390     15.723390     31.446779
     -4.659660     14.186622     14.186622     28.373244
     -4.649650     13.105930     13.105930     26.211860
     -4.639640     13.067529     13.067529     26.135057
     -4.629630     14.668618     14.668618     29.337236
     -4.619620     18.326212     18.326212     36.652423
     -4.609610     24.081757     24.081757     48.163513
     -4.599600     31.476705     31.476705     62.953409
     -4.589590     39.573609     39.573609     79.147218
     -4.579580     47.159491     47.159491     94.318981
     -4.569570     53.092543     53.092543    106.185087
     -4.559560     56.670365     56.670365    113.340730
     -4.549550     57.860280     57.860280    115.720560
     -4.539540     57.277248     57.277248    114.554495
     -4.529530     55.909485     55.909485    111.818971
     -4.519520     54.714052     54.714052    109.428103
     -4.509510     54.263200     54.263200    108.526401
     -4.499499     54.585591     54.585591    109.171182
     -4.489489     55.241444     55.241444    110.482888
     -4.479479     55.561306     55.561306    111.122612
     -4.469469     54.921663     54.921663    109.843327
     -4.459459     52.945264     52.945264    105.890528
     -4.449449     49.575509     49.575509     99.151018
     -4.439439     45.040219     45.040219     90.080438
     -4.429429     39.757917     39.757917     79.515835
     -4.419419     34.240727     34.240727     68.481455
     -4.409409     29.022756     29.022756     58.045512
     -4.399399     24.611083     24.611083     49.222165
     -4.389389     21.437368     21.437368     42.874735
     -4.379379     19.793081     19.793081     39.586162
     -4.369369     19.756880     19.756880     39.513760
     -4.359359     21.149733     21.149733     42.299465
     -4.349349     23.558557     23.558557     47.117115
     -4.339339     26.442619     26.442619     52.885237
     -4.329329     29.292519     29.292519     58.585037
     -4.319319     31.778475     31.778475     63.556951
     -4.309309     33.825506     33.825506     67.651012
     -4.299299     35.587169     35.587169     71.174339
     -4.289289     37.333797     37.333797     74.667595
     -4.279279     39.300570     39.300570     78.601139
     -4.269269     41.547279     41.547279     83.094559
     -4.259259     43.874912     43.874912     87.749824
     -4.249249     45.834044     45.834044     91.668088
     -4.239239     46.842179     46.842179     93.684359
     -4.229229     46.390155     46.390155     92.780311
     -4.219219     44.266688     44.266688     88.533377
     -4.209209     40.696725     40.696725     81.393450
     -4.199199     36.310175     36.310175     72.620350
     -4.189189     31.936877     31.936877     63.873753
     -4.179179     28.318035     28.318035     56.636069
     -4.169169     25.872036     25.872036     51.744073
     -4.159159     24.621196     24.621196     49.242393
     -4.149149     24.297400     24.297400     48.594801
     -4.139139     24.554315     24.554315     49.108630
     -4.129129     25.169480     25.169480     50.338959
     -4.119119     26.134930     26.134930     52.269860
     -4.109109     27.594382     27.594382     55.188764
     -4.099099     29.661348     29.661348     59.322696
     -4.089089     32.217075     32.217075     64.434150
     -4.079079     34.810334     34.810334     69.620668
     -4.069069     36.741369     36.741369     73.482739
     -4.059059     37.316910     37.316910     74.633820
     -4.049049     36.159630     36.159630     72.319260
     -4.039039     33.410394     33.410394     66.820789
     -4.029029     29.712328     29.712328     59.424656
     -4.019019     25.985491     25.985491     51.970982
     -4.009009     23.113173     23.113173     46.226345
     -3.998999     21.694376     21.694376     43.388752
     -3.988989     21.957762     21.957762     43.915525
     -3.978979     23.828730     23.828730     47.657459
     -3.968969     27.064875     27.064875     54.129750
     -3.958959     31.368408     31.368408     62.736817
     -3.948949     36.435893     36.435893     72.871786
     -3.938939     41.966372     41.966372     83.932744
     -3.928929     47.671454     47.671454     95.342907
     -3.918919     53.305559     53.305559    106.611119
     -3.908909     58.692120     58.692120    117.384241
     -3.898899     63.704525     63.704525    127.409050
     -3.888889     68.187403     68.187403    136.374806
     -3.878879     71.854750     71.854750    143.709500
     -3.868869     74.236627     74.236627    148.473254
     -3.858859     74.736269     74.736269    149.472539
     -3.848849     72.805693     72.805693    145.611386
     -3.838839     68.179854     68.179854    136.359708
     -3.828829     61.066283     61.066283    122.132566
     -3.818819     52.194959     52.194959    104.389918
     -3.808809     42.690172     42.690172     85.380343
     -3.798799     33.803028     33.803028     67.606056
     -3.788789     26.600468     26.600468     53.200936
     -3.778779     21.717675     21.717675     43.435351
     -3.768769     19.246753     19.246753     38.493506
     -3.758759     18.779360     18.779360     37.558720
     -3.748749     19.572575     19.572575     39.145149
     -3.738739     20.780870     20.780870     41.561739
     -3.728729     21.692032     21.692032     43.384063
     -3.718719     21.912465     21.912465     43.824929
     -3.708709     21.460561     21.460561     42.921123
     -3.698699     20.744165     20.744165     41.488329
     -3.688689     20.421540     20.421540     40.843079
     -3.678679     21.175441     21.175441     42.350883
     -3.668669     23.461687     23.461687     46.923373
     -3.658659     27.314475     27.314475     54.628949
     -3.648649     32.284491     32.284491     64.568983
     -3.638639     37.543926     37.543926     75.087853
     -3.628629     42.125807     42.125807     84.251613
     -3.618619     45.205195     45.205195     90.410391
     -3.608609     46.312693     46.312693     92.625386
     -3.598599     45.409293     45.409293     90.818585
     -3.588589     42.822028     42.822028     85.644056
     -3.578579     39.096718     39.096718     78.193437
     -3.568569     34.836599     34.836599     69.673197
     -3.558559     30.570388     30.570388     61.140776
     -3.548549     26.663121     26.663121     53.326242
     -3.538539     23.272680     23.272680     46.545361
     -3.528529     20.359735     20.359735     40.719470
     -3.518519     17.756081     17.756081     35.512163
     -3.508509     15.274912     15.274912     30.549824
     -3.498498     12.820483     12.820483     25.640965
     -3.488488     10.448881     10.448881     20.897762
     -3.478478      8.355062      8.355062     16.710124
     -3.468468      6.798030      6.798030     13.596061
     -3.458458      6.000842      6.000842     12.001685
     -3.448448      6.063661      6.063661     12.127322
     -3.438438      6.914907      6.914907     13.829814
     -3.428428      8.312607      8.312607     16.625215
     -3.418418      9.899929      9.899929     19.799859
     -3.408408     11.308462     11.308462     22.616924
     -3.398398     12.284177     12.284177     24.568354
     -3.388388     12.791685     12.791685     25.583371
     -3.378378     13.049594     13.049594     26.099188
     -3.368368     13.473531     13.473531     26.947063
     -3.358358     14.543760     14.543760     29.087520
     -3.348348     16.646262     16.646262     33.292523
     -3.338338     19.940202     19.940202     39.880403
     -3.328328     24.283296     24.283296     48.566593
     -3.318318     29.221689     29.221689     58.443379
     -3.308308     34.042222     34.042222     68.084444
     -3.298298     37.890040     37.890040     75.780079
     -3.288288     39.950918     39.950918     79.901836
     -3.278278     39.668881     39.668881     79.337762
     -3.268268     36.928846     36.928846     73.857692
     -3.258258     32.119410     32.119410     64.238821
     -3.248248     26.030156     26.030156     52.060312
     -3.238238     19.616540     19.616540     39.233081
     -3.228228     13.732726     13.732726     27.465452
     -3.218218      8.942878      8.942878     17.885756
     -3.208208      5.471102      5.471102     10.942204
     -3.198198      3.277328      3.277328      6.554657
     -3.188188      2.196390      2.196390      4.392780
     -3.178178      2.070072      2.070072      4.140145
     -3.168168      2.826012      2.826012      5.652024
     -3.158158      4.489567      4.489567      8.979134
     -3.148148      7.139107      7.139107     14.278214
     -3.138138     10.828482     10.828482     21.656965
     -3.128128     15.505819     15.505819     31.011639
     -3.118118     20.957140     20.957140     41.914281
     -3.108108     26.796276     26.796276     53.592552
     -3.098098     32.509566     32.509566     65.019133
     -3.088088     37.547696     37.547696     75.095393
     -3.078078     41.440878     41.440878     82.881756
     -3.068068     43.900830     43.900830     87.801660
     -3.058058     44.869476     44.869476     89.738952
     -3.048048     44.488646     44.488646     88.977291
     -3.038038     43.000146     43.000146     86.000292
     -3.028028     40.627026     40.627026     81.254051
     -3.018018     37.505584     37.505584     75.011168
     -3.008008     33.711901     33.711901     67.423801
     -2.997998     29.366611     29.366611     58.733221
     -2.987988     24.748213     24.748213     49.496427
     -2.977978     20.337785     20.337785     40.675571
     -2.967968     16.760198     16.760198     33.520396
     -2.957958     14.644839     14.644839     29.289679
     -2.947948     14.462453     14.462453     28.924905
     -2.937938     16.391504     16.391504     32.783007
     -2.927928     20.245344     20.245344     40.490687
     -2.917918     25.474010     25.474010     50.948021
     -2.907908     31.247354     31.247354     62.494709
     -2.897898     36.616606     36.616606     73.233212
     -2.887888     40.727998     40.727998     81.455997
     -2.877878     43.030915     43.030915     86.061830
     -2.867868     43.406338     43.406338     86.812677
     -2.857858     42.158983     42.158983     84.317967
     -2.847848     39.868591     39.868591     79.737181
     -2.837838     37.158907     37.158907     74.317814
     -2.827828     34.482871     34.482871     68.965741
     -2.817818     32.015039     32.015039     64.030078
     -2.807808     29.688455     29.688455     59.376911
     -2.797798     27.340372     27.340372     54.680744
     -2.787788     24.878687     24.878687     49.757374
     -2.777778     22.377334     22.377334     44.754669
     -2.767768     20.055523     20.055523     40.111046
     -2.757758     18.165597     18.165597     36.331194
     -2.747748     16.866589     16.866589     33.733179
     -2.737738     16.164508     16.164508     32.329017
     -2.727728     15.953543     15.953543     31.907085
     -2.717718     16.123825     16.123825     32.247651
     -2.707708     16.655518     16.655518     33.311035
     -2.697698     17.627538     17.627538     35.255077
     -2.687688     19.129088     19.129088     38.258175
     -2.677678     21.134073     21.134073     42.268145
     -2.667668     23.432009     23.432009     46.864019
     -2.657658     25.676935     25.676935     51.353871
     -2.647648     27.536675     27.536675     55.073349
     -2.637638     28.852599     28.852599     57.705198
     -2.627628     29.707584     29.707584     59.415168
     -2.617618     30.358617     30.358617     60.717233
     -2.607608     31.079082     31.079082     62.158164
     -2.597598     32.009785     32.009785     64.019569
     -2.587588     33.099732     33.099732     66.199464
     -2.577578     34.147229     34.147229     68.294458
     -2.567568     34.888036     34.888036     69.776072
     -2.557558     35.068254     35.068254     70.136507
     -2.547548     34.481956     34.481956     68.963912
     -2.537538     33.000014     33.000014     66.000029
     -2.527528     30.621447     30.621447     61.242893
     -2.517518     27.539980     27.539980     55.079960
     -2.507508     24.176484     24.176484     48.352969
     -2.497497     21.125251     21.125251     42.250503
     -2.487487     19.005856     19.005856     38.011712
     -2.477477     18.271218     18.271218     36.542437
     -2.467467     19.055647     19.055647     38.111293
     -2.457457     21.134196     21.134196     42.268392
     -2.447447     24.015650     24.015650     48.031301
     -2.437437     27.131734     27.131734     54.263467
     -2.427427     30.041974     30.041974     60.083948
     -2.417417     32.565204     32.565204     65.130408
     -2.407407     34.779292     34.779292     69.558584
     -2.397397     36.888899     36.888899     73.777798
     -2.387387     39.022791     39.022791     78.045582
     -2.377377     41.060242     41.060242     82.120483
     -2.367367     42.580690     42.580690     85.161381
     -2.357357     42.979072     42.979072     85.958144
     -2.347347     41.709685     41.709685     83.419370
     -2.337337     38.551629     38.551629     77.103258
     -2.327327     33.769335     33.769335     67.538671
     -2.317317     28.089399     28.089399     56.178798
     -2.307307     22.505319     22.505319     45.010639
     -2.297297     18.001074     18.001074     36.002148
     -2.287287     15.307624     15.307624     30.615249
     -2.277277     14.769273     14.769273     29.538546
     -2.267267     16.333691     16.333691     32.667382
     -2.257257     19.631468     19.631468     39.262936
     -2.247247     24.095991     24.095991     48.191982
     -2.237237     29.083446     29.083446     58.166891
     -2.227227     33.968415     33.968415     67.936830
     -2.217217     38.204344     38.204344     76.408687
     -2.207207     41.351293     41.351293     82.702587
     -2.197197     43.086757     43.086757     86.173513
     -2.187187     43.222067     43.222067     86.444134
     -2.177177     41.737492     41.737492     83.474983
     -2.167167     38.823249     38.823249     77.646499
     -2.157157     34.888028     34.888028     69.776055
     -2.147147     30.495608     30.495608     60.991217
     -2.137137     26.224984     26.224984     52.449968
     -2.127127     22.501989     22.501989     45.003978
     -2.117117     19.482470     19.482470     38.964940
     -2.107107     17.049261     17.049261     34.098522
     -2.097097     14.924299     14.924299     29.848599
     -2.087087     12.833235     12.833235     25.666470
     -2.077077     10.635970     10.635970     21.271940
     -2.067067      8.365797      8.365797     16.731594
     -2.057057      6.177778      6.177778     12.355557
     -2.047047      4.253530      4.253530      8.507060
     -2.037037      2.719294      2.719294      5.438588
     -2.027027      1.610768      1.610768      3.221536
     -2.017017      0.884744      0.884744      1.769488
     -2.007007      0.456160      0.456160      0.912320
     -1.996997      0.236960      0.236960      0.473919
     -1.986987      0.163450      0.163450      0.326900
     -1.976977      0.210531      0.210531      0.421063
     -1.966967      0.396939      0.396939      0.793878
     -1.956957      0.784552      0.784552      1.569104
     -1.946947      1.470262      1.470262      2.940524
     -1.936937      2.565718      2.565718      5.131436
     -1.926927      4.162301      4.162301      8.324601
     -1.916917      6.286681      6.286681     12.573361
     -1.906907      8.862244      8.862244     17.724487
     -1.896897     11.696134     11.696134     23.392267
     -1.886887     14.504998     14.504998     29.009997
     -1.876877     16.976596     16.976596     33.953192
     -1.866867     18.848759     18.848759     37.697518
     -1.856857     19.981219     19.981219     39.962439
     -1.846847     20.400255     20.400255     40.800509
     -1.836837     20.303439     20.303439     40.606879
     -1.826827     20.016443     20.016443     40.032886
     -1.816817     19.900166     19.900166     39.800332
     -1.806807     20.223293     20.223293     40.446587
     -1.796797     21.040923     21.040923     42.081845
     -1.786787     22.136333     22.136333     44.272666
     -1.776777     23.069119     23.069119     46.138239
     -1.766767     23.326204     23.326204     46.652407
     -1.756757     22.517021     22.517021     45.034042
     -1.746747     20.526261     20.526261     41.052522
     -1.736737     17.557242     17.557242     35.114484
     -1.726727     14.055162     14.055162     28.110324
     -1.716717     10.557378     10.557378     21.114755
     -1.706707      7.543901      7.543901     15.087802
     -1.696697      5.344877      5.344877     10.689754
     -1.686687      4.119268      4.119268      8.238536
     -1.676677      3.879646      3.879646      7.759292
     -1.666667      4.524207      4.524207      9.048413
     -1.656657      5.852300      5.852300     11.704599
     -1.646647      7.569053      7.569053     15.138106
     -1.636637      9.305790      9.305790     18.611580
     -1.626627     10.680237     10.680237     21.360474
