# EIG2DOS: Utility for SIESTA to obtain the electronic density of states
#  E. Artacho, Apr 1999, A. Garcia, Apr 2012
#  Nick R. Papior, Feb 2017
# ------------------------------------------
# Eigenvalues calculated from a non-polarized calculation
# Eigenvalues read from siesta.EIG
# Kpoint weights read from siesta.KP
# Using smearing parameter:   0.0500
# Using 1000 points in the energy range
# Selected bands: 1 to: 2981
# Emin, Emax in file for selected band(s):    -27.3163353    218.3967720
# Nbands, Nspin, Nk   =   2981     1     1
# E_F                 =    -4.2050 eV --> (shifted to ZERO)
# Broadening          =     0.0500 eV
#
#        E            N(up)  (=)   N(down)         Ntot
     -5.000000     31.345924     31.345924     62.691849
     -4.989990     36.355553     36.355553     72.711107
     -4.979980     41.143771     41.143771     82.287542
     -4.969970     44.897551     44.897551     89.795101
     -4.959960     46.907096     46.907096     93.814192
     -4.949950     46.801726     46.801726     93.603453
     -4.939940     44.679798     44.679798     89.359596
     -4.929930     41.092712     41.092712     82.185423
     -4.919920     36.910885     36.910885     73.821769
     -4.909910     33.135707     33.135707     66.271414
     -4.899900     30.710186     30.710186     61.420373
     -4.889890     30.345853     30.345853     60.691705
     -4.879880     32.365544     32.365544     64.731088
     -4.869870     36.580793     36.580793     73.161586
     -4.859860     42.257475     42.257475     84.514950
     -4.849850     48.230001     48.230001     96.460002
     -4.839840     53.176673     53.176673    106.353347
     -4.829830     55.986083     55.986083    111.972166
     -4.819820     56.080348     56.080348    112.160696
     -4.809810     53.563738     53.563738    107.127477
     -4.799800     49.140481     49.140481     98.280962
     -4.789790     43.850524     43.850524     87.701048
     -4.779780     38.745037     38.745037     77.490074
     -4.769770     34.626202     34.626202     69.252404
     -4.759760     31.917908     31.917908     63.835816
     -4.749750     30.661106     30.661106     61.322212
     -4.739740     30.585202     30.585202     61.170405
     -4.729730     31.208464     31.208464     62.416928
     -4.719720     31.945747     31.945747     63.891494
     -4.709710     32.221206     32.221206     64.442411
     -4.699700     31.583302     31.583302     63.166605
     -4.689690     29.806979     29.806979     59.613958
     -4.679680     26.959208     26.959208     53.918417
     -4.669670     23.408291     23.408291     46.816582
     -4.659660     19.771697     19.771697     39.543394
     -4.649650     16.812513     16.812513     33.625026
     -4.639640     15.302297     15.302297     30.604594
     -4.629630     15.867514     15.867514     31.735027
     -4.619620     18.835662     18.835662     37.671325
     -4.609610     24.105676     24.105676     48.211353
     -4.599600     31.084812     31.084812     62.169623
     -4.589590     38.744025     38.744025     77.488050
     -4.579580     45.822342     45.822342     91.644685
     -4.569570     51.151495     51.151495    102.302991
     -4.559560     54.000765     54.000765    108.001530
     -4.549550     54.304694     54.304694    108.609389
     -4.539540     52.666713     52.666713    105.333426
     -4.529530     50.122848     50.122848    100.245697
     -4.519520     47.755814     47.755814     95.511628
     -4.509510     46.315293     46.315293     92.630585
     -4.499499     45.993164     45.993164     91.986329
     -4.489489     46.429368     46.429368     92.858737
     -4.479479     46.922892     46.922892     93.845785
     -4.469469     46.740797     46.740797     93.481593
     -4.459459     45.391125     45.391125     90.782251
     -4.449449     42.760226     42.760226     85.520451
     -4.439439     39.089159     39.089159     78.178318
     -4.429429     34.838292     34.838292     69.676584
     -4.419419     30.527091     30.527091     61.054181
     -4.409409     26.622351     26.622351     53.244703
     -4.399399     23.496964     23.496964     46.993929
     -4.389389     21.429080     21.429080     42.858159
     -4.379379     20.593631     20.593631     41.187262
     -4.369369     21.024031     21.024031     42.048063
     -4.359359     22.567568     22.567568     45.135136
     -4.349349     24.884425     24.884425     49.768850
     -4.339339     27.524183     27.524183     55.048366
     -4.329329     30.065732     30.065732     60.131465
     -4.319319     32.261633     32.261633     64.523266
     -4.309309     34.116700     34.116700     68.233400
     -4.299299     35.858184     35.858184     71.716368
     -4.289289     37.802581     37.802581     75.605161
     -4.279279     40.167513     40.167513     80.335027
     -4.269269     42.902025     42.902025     85.804050
     -4.259259     45.610531     45.610531     91.221063
     -4.249249     47.621621     47.621621     95.243243
     -4.239239     48.201071     48.201071     96.402141
     -4.229229     46.840308     46.840308     93.680616
     -4.219219     43.499200     43.499200     86.998399
     -4.209209     38.683642     38.683642     77.367283
     -4.199199     33.307165     33.307165     66.614331
     -4.189189     28.390271     28.390271     56.780542
     -4.179179     24.731423     24.731423     49.462845
     -4.169169     22.692440     22.692440     45.384880
     -4.159159     22.176829     22.176829     44.353658
     -4.149149     22.783815     22.783815     45.567630
     -4.139139     24.045735     24.045735     48.091471
     -4.129129     25.632797     25.632797     51.265593
     -4.119119     27.436934     27.436934     54.873867
     -4.109109     29.506937     29.506937     59.013874
     -4.099099     31.876660     31.876660     63.753321
     -4.089089     34.383038     34.383038     68.766076
     -4.079079     36.585540     36.585540     73.171081
     -4.069069     37.856347     37.856347     75.712694
     -4.059059     37.620875     37.620875     75.241750
     -4.049049     35.636790     35.636790     71.273580
     -4.039039     32.165036     32.165036     64.330071
     -4.029029     27.937369     27.937369     55.874737
     -4.019019     23.933104     23.933104     47.866208
     -4.009009     21.074992     21.074992     42.149985
     -3.998999     19.982162     19.982162     39.964324
     -3.988989     20.868539     20.868539     41.737078
     -3.978979     23.589412     23.589412     47.178824
     -3.968969     27.772718     27.772718     55.545436
     -3.958959     32.957583     32.957583     65.915166
     -3.948949     38.693800     38.693800     77.387599
     -3.938939     44.598468     44.598468     89.196937
     -3.928929     50.386714     50.386714    100.773428
     -3.918919     55.883653     55.883653    111.767306
     -3.908909     61.004419     61.004419    122.008837
     -3.898899     65.686863     65.686863    131.373727
     -3.888889     69.788181     69.788181    139.576362
     -3.878879     72.993879     72.993879    145.987757
     -3.868869     74.802983     74.802983    149.605966
     -3.858859     74.627955     74.627955    149.255911
     -3.848849     71.991277     71.991277    143.982554
     -3.838839     66.744972     66.744972    133.489945
     -3.828829     59.216966     59.216966    118.433931
     -3.818819     50.212512     50.212512    100.425024
     -3.808809     40.857745     40.857745     81.715490
     -3.798799     32.336002     32.336002     64.672004
     -3.788789     25.606326     25.606326     51.212652
     -3.778779     21.193164     21.193164     42.386328
     -3.768769     19.103431     19.103431     38.206862
     -3.758759     18.881588     18.881588     37.763176
     -3.748749     19.774625     19.774625     39.549250
     -3.738739     20.956456     20.956456     41.912912
     -3.728729     21.754663     21.754663     43.509326
     -3.718719     21.826778     21.826778     43.653556
     -3.708709     21.244560     21.244560     42.489121
     -3.698699     20.462103     20.462103     40.924206
     -3.688689     20.167909     20.167909     40.335818
     -3.678679     21.051934     21.051934     42.103868
     -3.668669     23.550660     23.550660     47.101320
     -3.658659     27.654166     27.654166     55.308333
     -3.648649     32.852550     32.852550     65.705099
     -3.638639     38.255613     38.255613     76.511226
     -3.628629     42.850116     42.850116     85.700232
     -3.618619     45.796215     45.796215     91.592431
     -3.608609     46.647160     46.647160     93.294320
     -3.598599     45.418010     45.418010     90.836021
     -3.588589     42.504757     42.504757     85.009513
     -3.578579     38.516546     38.516546     77.033092
     -3.568569     34.097455     34.097455     68.194910
     -3.558559     29.786817     29.786817     59.573634
     -3.548549     25.932741     25.932741     51.865482
     -3.538539     22.659039     22.659039     45.318078
     -3.528529     19.888200     19.888200     39.776400
     -3.518519     17.420418     17.420418     34.840835
     -3.508509     15.049234     15.049234     30.098467
     -3.498498     12.671219     12.671219     25.342438
     -3.488488     10.343657     10.343657     20.687314
     -3.478478      8.268610      8.268610     16.537220
     -3.468468      6.717937      6.717937     13.435875
     -3.458458      5.937125      5.937125     11.874250
     -3.448448      6.065309      6.065309     12.130618
     -3.438438      7.093449      7.093449     14.186897
     -3.428428      8.867506      8.867506     17.735012
     -3.418418     11.134223     11.134223     22.268445
     -3.408408     13.618058     13.618058     27.236117
     -3.398398     16.104961     16.104961     32.209922
     -3.388388     18.499462     18.499462     36.998924
     -3.378378     20.829461     20.829461     41.658922
     -3.368368     23.200161     23.200161     46.400323
     -3.358358     25.727232     25.727232     51.454463
     -3.348348     28.484956     28.484956     56.969912
     -3.338338     31.481330     31.481330     62.962660
     -3.328328     34.641034     34.641034     69.282068
     -3.318318     37.772257     37.772257     75.544514
     -3.308308     40.525334     40.525334     81.050667
     -3.298298     42.392304     42.392304     84.784608
     -3.288288     42.801197     42.801197     85.602394
     -3.278278     41.307129     41.307129     82.614257
     -3.268268     37.805509     37.805509     75.611019
     -3.258258     32.652472     32.652472     65.304944
     -3.248248     26.613070     26.613070     53.226141
     -3.238238     20.648715     20.648715     41.297430
     -3.228228     15.638248     15.638248     31.276496
     -3.218218     12.148841     12.148841     24.297682
     -3.208208     10.331303     10.331303     20.662606
     -3.198198      9.950141      9.950141     19.900281
     -3.188188     10.513894     10.513894     21.027788
     -3.178178     11.457159     11.457159     22.914318
     -3.168168     12.326772     12.326772     24.653543
     -3.158158     12.925350     12.925350     25.850700
     -3.148148     13.367755     13.367755     26.735510
     -3.138138     14.023084     14.023084     28.046169
     -3.128128     15.351558     15.351558     30.703116
     -3.118118     17.689640     17.689640     35.379280
     -3.108108     21.065602     21.065602     42.131203
     -3.098098     25.124041     25.124041     50.248081
     -3.088088     29.199100     29.199100     58.398200
     -3.078078     32.515529     32.515529     65.031059
     -3.068068     34.439171     34.439171     68.878341
     -3.058058     34.672067     34.672067     69.344134
     -3.048048     33.310336     33.310336     66.620672
     -3.038038     30.749245     30.749245     61.498491
     -3.028028     27.496086     27.496086     54.992172
     -3.018018     23.993254     23.993254     47.986508
     -3.008008     20.535987     20.535987     41.071973
     -2.997998     17.304654     17.304654     34.609307
     -2.987988     14.463802     14.463802     28.927605
     -2.977978     12.250735     12.250735     24.501469
     -2.967968     10.995697     10.995697     21.991393
     -2.957958     11.061267     11.061267     22.122534
     -2.947948     12.728187     12.728187     25.456374
     -2.937938     16.072307     16.072307     32.144614
     -2.927928     20.876331     20.876331     41.752661
     -2.917918     26.611013     26.611013     53.222027
     -2.907908     32.506126     32.506126     65.012252
     -2.897898     37.707645     37.707645     75.415291
     -2.887888     41.484445     41.484445     82.968891
     -2.877878     43.417722     43.417722     86.835444
     -2.867868     43.499220     43.499220     86.998441
     -2.857858     42.092475     42.092475     84.184949
     -2.847848     39.767817     39.767817     79.535634
     -2.837838     37.080510     37.080510     74.161020
     -2.827828     34.389900     34.389900     68.779799
     -2.817818     31.797232     31.797232     63.594464
     -2.807808     29.218704     29.218704     58.437408
     -2.797798     26.540693     26.540693     53.081386
     -2.787788     23.764532     23.764532     47.529065
     -2.777778     21.060693     21.060693     42.121387
     -2.767768     18.708923     18.708923     37.417846
     -2.757758     16.968495     16.968495     33.936990
     -2.747748     15.961802     15.961802     31.923604
     -2.737738     15.642216     15.642216     31.284432
     -2.727728     15.860891     15.860891     31.721782
     -2.717718     16.481687     16.481687     32.963373
     -2.707708     17.461169     17.461169     34.922339
     -2.697698     18.835080     18.835080     37.670159
     -2.687688     20.620266     20.620266     41.240531
     -2.677678     22.706411     22.706411     45.412821
     -2.667668     24.826931     24.826931     49.653863
     -2.657658     26.647744     26.647744     53.295489
     -2.647648     27.928649     27.928649     55.857297
     -2.637638     28.654896     28.654896     57.309792
     -2.627628     29.049916     29.049916     58.099832
     -2.617618     29.456602     29.456602     58.913205
     -2.607608     30.158926     30.158926     60.317851
     -2.597598     31.247219     31.247219     62.494438
     -2.587588     32.590478     32.590478     65.180957
     -2.577578     33.904016     33.904016     67.808032
     -2.567568     34.850387     34.850387     69.700773
     -2.557558     35.118369     35.118369     70.236738
     -2.547548     34.470476     34.470476     68.940952
     -2.537538     32.785509     32.785509     65.571018
     -2.527528     30.116252     30.116252     60.232503
     -2.517518     26.744112     26.744112     53.488224
     -2.507508     23.182753     23.182753     46.365507
     -2.497497     20.092849     20.092849     40.185699
     -2.487487     18.115907     18.115907     36.231813
     -2.477477     17.684313     17.684313     35.368625
     -2.467467     18.885457     18.885457     37.770915
     -2.457457     21.439549     21.439549     42.879099
     -2.447447     24.804797     24.804797     49.609594
     -2.437437     28.370773     28.370773     56.741546
     -2.427427     31.661975     31.661975     63.323949
     -2.417417     34.465400     34.465400     68.930799
     -2.407407     36.825540     36.825540     73.651080
     -2.397397     38.909241     38.909241     77.818482
     -2.387387     40.806857     40.806857     81.613713
     -2.377377     42.373602     42.373602     84.747204
     -2.367367     43.203156     43.203156     86.406312
     -2.357357     42.763892     42.763892     85.527785
     -2.347347     40.643583     40.643583     81.287167
     -2.337337     36.785913     36.785913     73.571826
     -2.327327     31.600160     31.600160     63.200320
     -2.317317     25.888725     25.888725     51.777451
     -2.307307     20.628703     20.628703     41.257406
     -2.297297     16.708202     16.708202     33.416403
     -2.287287     14.721730     14.721730     29.443460
     -2.277277     14.880906     14.880906     29.761813
     -2.267267     17.036139     17.036139     34.072278
     -2.257257     20.767220     20.767220     41.534440
     -2.247247     25.495642     25.495642     50.991285
     -2.237237     30.586292     30.586292     61.172583
     -2.227227     35.424205     35.424205     70.848411
     -2.217217     39.465354     39.465354     78.930707
     -2.207207     42.269198     42.269198     84.538395
     -2.197197     43.526122     43.526122     87.052243
     -2.187187     43.091513     43.091513     86.183025
     -2.177177     41.025987     41.025987     82.051975
     -2.167167     37.620911     37.620911     75.241822
     -2.157157     33.374396     33.374396     66.748793
     -2.147147     28.893333     28.893333     57.786665
     -2.137137     24.735453     24.735453     49.470905
     -2.127127     21.250611     21.250611     42.501223
     -2.117117     18.497466     18.497466     36.994932
     -2.107107     16.280627     16.280627     32.561253
     -2.097097     14.289489     14.289489     28.578978
     -2.087087     12.265398     12.265398     24.530797
     -2.077077     10.114937     10.114937     20.229874
     -2.067067      7.926961      7.926961     15.853922
     -2.057057      5.908728      5.908728     11.817456
     -2.047047      4.293294      4.293294      8.586588
     -2.037037      3.267898      3.267898      6.535795
     -2.027027      2.942262      2.942262      5.884525
     -2.017017      3.343859      3.343859      6.687718
     -2.007007      4.416119      4.416119      8.832239
     -1.996997      6.008880      6.008880     12.017760
     -1.986987      7.873854      7.873854     15.747707
     -1.976977      9.691036      9.691036     19.382071
     -1.966967     11.141515     11.141515     22.283030
     -1.956957     12.011903     12.011903     24.023807
     -1.946947     12.285314     12.285314     24.570628
     -1.936937     12.166909     12.166909     24.333817
     -1.926927     12.018028     12.018028     24.036056
     -1.916917     12.218924     12.218924     24.437849
     -1.906907     13.018418     13.018418     26.036836
     -1.896897     14.436091     14.436091     28.872182
     -1.886887     16.255831     16.255831     32.511662
     -1.876877     18.106327     18.106327     36.212655
     -1.866867     19.589412     19.589412     39.178824
     -1.856857     20.406137     20.406137     40.812274
     -1.846847     20.441025     20.441025     40.882050
     -1.836837     19.783944     19.783944     39.567888
     -1.826827     18.686326     18.686326     37.372652
     -1.816817     17.463863     17.463863     34.927726
     -1.806807     16.375399     16.375399     32.750798
     -1.796797     15.523607     15.523607     31.047214
     -1.786787     14.823195     14.823195     29.646391
     -1.776777     14.056203     14.056203     28.112405
     -1.766767     12.989866     12.989866     25.979732
     -1.756757     11.497542     11.497542     22.995084
     -1.746747      9.622411      9.622411     19.244823
     -1.736737      7.559058      7.559058     15.118115
     -1.726727      5.575039      5.575039     11.150078
     -1.716717      3.922168      3.922168      7.844336
     -1.706707      2.780775      2.780775      5.561550
     -1.696697      2.249807      2.249807      4.499615
     -1.686687      2.364697      2.364697      4.729393
     -1.676677      3.112482      3.112482      6.224965
     -1.666667      4.424266      4.424266      8.848533
     -1.656657      6.149299      6.149299     12.298598
     -1.646647      8.036936      8.036936     16.073873
     -1.636637      9.757789      9.757789     19.515577
     -1.626627     10.978072     10.978072     21.956143
