# EIG2DOS: Utility for SIESTA to obtain the electronic density of states
#  E. Artacho, Apr 1999, A. Garcia, Apr 2012
#  Nick R. Papior, Feb 2017
# ------------------------------------------
# Eigenvalues calculated from a non-polarized calculation
# Eigenvalues read from siesta.EIG
# Kpoint weights read from siesta.KP
# Using smearing parameter:   0.0500
# Using 1000 points in the energy range
# Selected bands: 1 to: 2981
# Emin, Emax in file for selected band(s):    -27.0347381    218.3227890
# Nbands, Nspin, Nk   =   2981     1     1
# E_F                 =    -4.2846 eV --> (shifted to ZERO)
# Broadening          =     0.0500 eV
#
#        E            N(up)  (=)   N(down)         Ntot
     -5.000000     44.435732     44.435732     88.871464
     -4.989990     46.496662     46.496662     92.993324
     -4.979980     47.569791     47.569791     95.139582
     -4.969970     47.595472     47.595472     95.190944
     -4.959960     46.552568     46.552568     93.105137
     -4.949950     44.497963     44.497963     88.995926
     -4.939940     41.611164     41.611164     83.222328
     -4.929930     38.221794     38.221794     76.443588
     -4.919920     34.810092     34.810092     69.620184
     -4.909910     31.978231     31.978231     63.956462
     -4.899900     30.385024     30.385024     60.770047
     -4.889890     30.628150     30.628150     61.256301
     -4.879880     33.068656     33.068656     66.137312
     -4.869870     37.633694     37.633694     75.267388
     -4.859860     43.685478     43.685478     87.370956
     -4.849850     50.061178     50.061178    100.122355
     -4.839840     55.334089     55.334089    110.668177
     -4.829830     58.233763     58.233763    116.467526
     -4.819820     58.057965     58.057965    116.115931
     -4.809810     54.888526     54.888526    109.777052
     -4.799800     49.512610     49.512610     99.025221
     -4.789790     43.099774     43.099774     86.199549
     -4.779780     36.799431     36.799431     73.598862
     -4.769770     31.435302     31.435302     62.870604
     -4.759760     27.389873     27.389873     54.779745
     -4.749750     24.660835     24.660835     49.321670
     -4.739740     23.003727     23.003727     46.007453
     -4.729730     22.074200     22.074200     44.148401
     -4.719720     21.523996     21.523996     43.047991
     -4.709710     21.047447     21.047447     42.094894
     -4.699700     20.398953     20.398953     40.797906
     -4.689690     19.406386     19.406386     38.812772
     -4.679680     17.997541     17.997541     35.995082
     -4.669670     16.240931     16.240931     32.481862
     -4.659660     14.384083     14.384083     28.768167
     -4.649650     12.861493     12.861493     25.722986
     -4.639640     12.247671     12.247671     24.495341
     -4.629630     13.146580     13.146580     26.293159
     -4.619620     16.029580     16.029580     32.059161
     -4.609610     21.055217     21.055217     42.110434
     -4.599600     27.924571     27.924571     55.849143
     -4.589590     35.838928     35.838928     71.677856
     -4.579580     43.615485     43.615485     87.230970
     -4.569570     49.967863     49.967863     99.935726
     -4.559560     53.881001     53.881001    107.762003
     -4.549550     54.944089     54.944089    109.888177
     -4.539540     53.496990     53.496990    106.993980
     -4.529530     50.513217     50.513217    101.026433
     -4.519520     47.256818     47.256818     94.513635
     -4.509510     44.851666     44.851666     89.703331
     -4.499499     43.936065     43.936065     87.872129
     -4.489489     44.528226     44.528226     89.056452
     -4.479479     46.127558     46.127558     92.255115
     -4.469469     47.975541     47.975541     95.951082
     -4.459459     49.345770     49.345770     98.691540
     -4.449449     49.745318     49.745318     99.490635
     -4.439439     48.974756     48.974756     97.949512
     -4.429429     47.073246     47.073246     94.146493
     -4.419419     44.224988     44.224988     88.449976
     -4.409409     40.698782     40.698782     81.397564
     -4.399399     36.841418     36.841418     73.682837
     -4.389389     33.086754     33.086754     66.173509
     -4.379379     29.920653     29.920653     59.841306
     -4.369369     27.775276     27.775276     55.550552
     -4.359359     26.889345     26.889345     53.778690
     -4.349349     27.213519     27.213519     54.427038
     -4.339339     28.426770     28.426770     56.853540
     -4.329329     30.068239     30.068239     60.136478
     -4.319319     31.722937     31.722937     63.445873
     -4.309309     33.172555     33.172555     66.345109
     -4.299299     34.446775     34.446775     68.893551
     -4.289289     35.762763     35.762763     71.525525
     -4.279279     37.386499     37.386499     74.772997
     -4.269269     39.470832     39.470832     78.941665
     -4.259259     41.926358     41.926358     83.852717
     -4.249249     44.374442     44.374442     88.748885
     -4.239239     46.216666     46.216666     92.433333
     -4.229229     46.820242     46.820242     93.640483
     -4.219219     45.763553     45.763553     91.527105
     -4.209209     43.036737     43.036737     86.073473
     -4.199199     39.090824     39.090824     78.181648
     -4.189189     34.694388     34.694388     69.388776
     -4.179179     30.658106     30.658106     61.316212
     -4.169169     27.560724     27.560724     55.121447
     -4.159159     25.605542     25.605542     51.211084
     -4.149149     24.659708     24.659708     49.319416
     -4.139139     24.431009     24.431009     48.862018
     -4.129129     24.675232     24.675232     49.350463
     -4.119119     25.325712     25.325712     50.651424
     -4.109109     26.484248     26.484248     52.968496
     -4.099099     28.282271     28.282271     56.564543
     -4.089089     30.686877     30.686877     61.373754
     -4.079079     33.363157     33.363157     66.726313
     -4.069069     35.689443     35.689443     71.378885
     -4.059059     36.949590     36.949590     73.899179
     -4.049049     36.625750     36.625750     73.251501
     -4.039039     34.645639     34.645639     69.291278
     -4.029029     31.451184     31.451184     62.902368
     -4.019019     27.850629     27.850629     55.701259
     -4.009009     24.734824     24.734824     49.469648
     -3.998999     22.803852     22.803852     45.607705
     -3.988989     22.423798     22.423798     44.847597
     -3.978979     23.641536     23.641536     47.283071
     -3.968969     26.295456     26.295456     52.590912
     -3.958959     30.129313     30.129313     60.258627
     -3.948949     34.852841     34.852841     69.705682
     -3.938939     40.155969     40.155969     80.311938
     -3.928929     45.720169     45.720169     91.440338
     -3.918919     51.256427     51.256427    102.512855
     -3.908909     56.554535     56.554535    113.109070
     -3.898899     61.496399     61.496399    122.992798
     -3.888889     65.997567     65.997567    131.995135
     -3.878879     69.890890     69.890890    139.781781
     -3.868869     72.819221     72.819221    145.638442
     -3.858859     74.221209     74.221209    148.442418
     -3.848849     73.457944     73.457944    146.915887
     -3.838839     70.053468     70.053468    140.106936
     -3.828829     63.949810     63.949810    127.899619
     -3.818819     55.651518     55.651518    111.303037
     -3.808809     46.176052     46.176052     92.352104
     -3.798799     36.814778     36.814778     73.629556
     -3.788789     28.795287     28.795287     57.590573
     -3.778779     22.972550     22.972550     45.945099
     -3.768769     19.651178     19.651178     39.302356
     -3.758759     18.577889     18.577889     37.155778
     -3.748749     19.081055     19.081055     38.162110
     -3.738739     20.298323     20.298323     40.596646
     -3.728729     21.425669     21.425669     42.851338
     -3.718719     21.929729     21.929729     43.859459
     -3.708709     21.678489     21.678489     43.356979
     -3.698699     20.960501     20.960501     41.921003
     -3.688689     20.382793     20.382793     40.765586
     -3.678679     20.665556     20.665556     41.331112
     -3.668669     22.384900     22.384900     44.769800
     -3.658659     25.742827     25.742827     51.485653
     -3.648649     30.449357     30.449357     60.898714
     -3.638639     35.771751     35.771751     71.543502
     -3.628629     40.742453     40.742453     81.484906
     -3.618619     44.447381     44.447381     88.894761
     -3.608609     46.279263     46.279263     92.558527
     -3.598599     46.062654     46.062654     92.125309
     -3.588589     44.025756     44.025756     88.051511
     -3.578579     40.664579     40.664579     81.329159
     -3.568569     36.574502     36.574502     73.149004
     -3.558559     32.306288     32.306288     64.612576
     -3.548549     28.267837     28.267837     56.535674
     -3.538539     24.672789     24.672789     49.345579
     -3.528529     21.538587     21.538587     43.077175
     -3.518519     18.739260     18.739260     37.478521
     -3.508509     16.103586     16.103586     32.207171
     -3.498498     13.523796     13.523796     27.047591
     -3.488488     11.027654     11.027654     22.055309
     -3.478478      8.782683      8.782683     17.565366
     -3.468468      7.035742      7.035742     14.071484
     -3.458458      6.019499      6.019499     12.038999
     -3.448448      5.863719      5.863719     11.727439
     -3.438438      6.538314      6.538314     13.076627
     -3.428428      7.841867      7.841867     15.683735
     -3.418418      9.441555      9.441555     18.883110
     -3.408408     10.962375     10.962375     21.924751
     -3.398398     12.107315     12.107315     24.214630
     -3.388388     12.769119     12.769119     25.538238
     -3.378378     13.085429     13.085429     26.170858
     -3.368368     13.406330     13.406330     26.812660
     -3.358358     14.182221     14.182221     28.364442
     -3.348348     15.816470     15.816470     31.632940
     -3.338338     18.536875     18.536875     37.073750
     -3.328328     22.318709     22.318709     44.637418
     -3.318318     26.861560     26.861560     53.723120
     -3.308308     31.609598     31.609598     63.219195
     -3.298298     35.817038     35.817038     71.634076
     -3.288288     38.674623     38.674623     77.349247
     -3.278278     39.498811     39.498811     78.997622
     -3.268268     37.939613     37.939613     75.879225
     -3.258258     34.120711     34.120711     68.241422
     -3.248248     28.631619     28.631619     57.263238
     -3.238238     22.356929     22.356929     44.713859
     -3.228228     16.212488     16.212488     32.424975
     -3.218218     10.903858     10.903858     21.807716
     -3.208208      6.799944      6.799944     13.599888
     -3.198198      3.945916      3.945916      7.891831
     -3.188188      2.173896      2.173896      4.347792
     -3.178178      1.243157      1.243157      2.486313
     -3.168168      0.955283      0.955283      1.910566
     -3.158158      1.220554      1.220554      2.441108
     -3.148148      2.075337      2.075337      4.150674
     -3.138138      3.657882      3.657882      7.315763
     -3.128128      6.148216      6.148216     12.296433
     -3.118118      9.679374      9.679374     19.358748
     -3.108108     14.238492     14.238492     28.476983
     -3.098098     19.592497     19.592497     39.184995
     -3.088088     25.279514     25.279514     50.559029
     -3.078078     30.689756     30.689756     61.379512
     -3.068068     35.218418     35.218418     70.436836
     -3.058058     38.428394     38.428394     76.856789
     -3.048048     40.144727     40.144727     80.289455
     -3.038038     40.435612     40.435612     80.871224
     -3.028028     39.502926     39.502926     79.005852
     -3.018018     37.563501     37.563501     75.127001
     -3.008008     34.805403     34.805403     69.610805
     -2.997998     31.444497     31.444497     62.888994
     -2.987988     27.827467     27.827467     55.654934
     -2.977978     24.487454     24.487454     48.974908
     -2.967968     22.086354     22.086354     44.172709
     -2.957958     21.250342     21.250342     42.500685
     -2.947948     22.369860     22.369860     44.739721
     -2.937938     25.452839     25.452839     50.905678
     -2.927928     30.089265     30.089265     60.178529
     -2.917918     35.534403     35.534403     71.068805
     -2.907908     40.877285     40.877285     81.754570
     -2.897898     45.243538     45.243538     90.487075
     -2.887888     47.982514     47.982514     95.965027
     -2.877878     48.797116     48.797116     97.594231
     -2.867868     47.785505     47.785505     95.571009
     -2.857858     45.380140     45.380140     90.760280
     -2.847848     42.195983     42.195983     84.391967
     -2.837838     38.832585     38.832585     77.665171
     -2.827828     35.699273     35.699273     71.398545
     -2.817818     32.930719     32.930719     65.861438
     -2.807808     30.424776     30.424776     60.849552
     -2.797798     27.978592     27.978592     55.957183
     -2.787788     25.451245     25.451245     50.902489
     -2.777778     22.868997     22.868997     45.737994
     -2.767768     20.422059     20.422059     40.844118
     -2.757758     18.363100     18.363100     36.726200
     -2.747748     16.873391     16.873391     33.746781
     -2.737738     15.979673     15.979673     31.959347
     -2.727728     15.571893     15.571893     31.143786
     -2.717718     15.507178     15.507178     31.014356
     -2.707708     15.728522     15.728522     31.457045
     -2.697698     16.314760     16.314760     32.629520
     -2.687688     17.421860     17.421860     34.843720
     -2.677678     19.148519     19.148519     38.297039
     -2.667668     21.414020     21.414020     42.828040
     -2.657658     23.934851     23.934851     47.869702
     -2.647648     26.326052     26.326052     52.652104
     -2.637638     28.271586     28.271586     56.543173
     -2.627628     29.660631     29.660631     59.321261
     -2.617618     30.607899     30.607899     61.215798
     -2.607608     31.352441     31.352441     62.704882
     -2.597598     32.106209     32.106209     64.212418
     -2.587588     32.945856     32.945856     65.891713
     -2.577578     33.796572     33.796572     67.593145
     -2.567568     34.486333     34.486333     68.972667
     -2.557558     34.811305     34.811305     69.622609
     -2.547548     34.573563     34.573563     69.147127
     -2.537538     33.602248     33.602248     67.204496
     -2.527528     31.795628     31.795628     63.591256
     -2.517518     29.197631     29.197631     58.395262
     -2.507508     26.071717     26.071717     52.143435
     -2.497497     22.907461     22.907461     45.814922
     -2.487487     20.320357     20.320357     40.640714
     -2.477477     18.867693     18.867693     37.735386
     -2.467467     18.858715     18.858715     37.717429
     -2.457457     20.249230     20.249230     40.498459
     -2.447447     22.673408     22.673408     45.346817
     -2.437437     25.600911     25.600911     51.201821
     -2.427427     28.548203     28.548203     57.096406
     -2.417417     31.246533     31.246533     62.493067
     -2.407407     33.688159     33.688159     67.376319
     -2.397397     36.029915     36.029915     72.059831
     -2.387387     38.403285     38.403285     76.806570
     -2.377377     40.729067     40.729067     81.458135
     -2.367367     42.637405     42.637405     85.274810
     -2.357357     43.546863     43.546863     87.093725
     -2.347347     42.879968     42.879968     85.759936
     -2.337337     40.323187     40.323187     80.646374
     -2.327327     36.012473     36.012473     72.024945
     -2.317317     30.557586     30.557586     61.115172
     -2.307307     24.893857     24.893857     49.787713
     -2.297297     20.027432     20.027432     40.054865
     -2.287287     16.777629     16.777629     33.555258
     -2.277277     15.603556     15.603556     31.207111
     -2.267267     16.551739     16.551739     33.103478
     -2.257257     19.311226     19.311226     38.622451
     -2.247247     23.334753     23.334753     46.669506
     -2.237237     27.979353     27.979353     55.958705
     -2.227227     32.626792     32.626792     65.253584
     -2.217217     36.757416     36.757416     73.514831
     -2.207207     39.970854     39.970854     79.941707
     -2.197197     41.971828     41.971828     83.943655
     -2.187187     42.557216     42.557216     85.114433
     -2.177177     41.635916     41.635916     83.271832
     -2.167167     39.281860     39.281860     78.563721
     -2.157157     35.780845     35.780845     71.561690
     -2.147147     31.615111     31.615111     63.230222
     -2.137137     27.356487     27.356487     54.712973
     -2.127127     23.497452     23.497452     46.994904
     -2.117117     20.299346     20.299346     40.598693
     -2.107107     17.738595     17.738595     35.477190
     -2.097097     15.579495     15.579495     31.158990
     -2.087087     13.530117     13.530117     27.060234
     -2.077077     11.394918     11.394918     22.789836
     -2.067067      9.149811      9.149811     18.299621
     -2.057057      6.918864      6.918864     13.837728
     -2.047047      4.887254      4.887254      9.774507
     -2.037037      3.208869      3.208869      6.417738
     -2.027027      1.952971      1.952971      3.905943
     -2.017017      1.101184      1.101184      2.202369
     -2.007007      0.578692      0.578692      1.157383
     -1.996997      0.294756      0.294756      0.589513
     -1.986987      0.174916      0.174916      0.349832
     -1.976977      0.179574      0.179574      0.359147
     -1.966967      0.312005      0.312005      0.624010
     -1.956957      0.619909      0.619909      1.239817
     -1.946947      1.190720      1.190720      2.381441
     -1.936937      2.136583      2.136583      4.273166
     -1.926927      3.564571      3.564571      7.129142
     -1.916917      5.533646      5.533646     11.067291
     -1.906907      8.009851      8.009851     16.019702
     -1.896897     10.838994     10.838994     21.677988
     -1.886887     13.754522     13.754522     27.509044
     -1.876877     16.425652     16.425652     32.851304
     -1.866867     18.533461     18.533461     37.066922
     -1.856857     19.850849     19.850849     39.701697
     -1.846847     20.301343     20.301343     40.602686
     -1.836837     19.978733     19.978733     39.957465
     -1.826827     19.118648     19.118648     38.237295
     -1.816817     18.023944     18.023944     36.047889
     -1.806807     16.961556     16.961556     33.923112
     -1.796797     16.067063     16.067063     32.134127
     -1.786787     15.301318     15.301318     30.602636
     -1.776777     14.486774     14.486774     28.973547
     -1.766767     13.411855     13.411855     26.823710
     -1.756757     11.953035     11.953035     23.906069
     -1.746747     10.154101     10.154101     20.308202
     -1.736737      8.228669      8.228669     16.457338
     -1.726727      6.495888      6.495888     12.991775
     -1.716717      5.289570      5.289570     10.579140
     -1.706707      4.880352      4.880352      9.760705
     -1.696697      5.427183      5.427183     10.854367
     -1.686687      6.951542      6.951542     13.903084
     -1.676677      9.322710      9.322710     18.645419
     -1.666667     12.254176     12.254176     24.508351
     -1.656657     15.324715     15.324715     30.649429
     -1.646647     18.038051     18.038051     36.076102
     -1.636637     19.919853     19.919853     39.839706
     -1.626627     20.630066     20.630066     41.260131
