# EIG2DOS: Utility for SIESTA to obtain the electronic density of states
#  E. Artacho, Apr 1999, A. Garcia, Apr 2012
#  Nick R. Papior, Feb 2017
# ------------------------------------------
# Eigenvalues calculated from a non-polarized calculation
# Eigenvalues read from siesta.EIG
# Kpoint weights read from siesta.KP
# Using smearing parameter:   0.0500
# Using 1000 points in the energy range
# Selected bands: 1 to: 2981
# Emin, Emax in file for selected band(s):    -27.0677534    218.3157800
# Nbands, Nspin, Nk   =   2981     1     1
# E_F                 =    -4.2998 eV --> (shifted to ZERO)
# Broadening          =     0.0500 eV
#
#        E            N(up)  (=)   N(down)         Ntot
     -5.000000     43.229979     43.229979     86.459957
     -4.989990     44.387825     44.387825     88.775650
     -4.979980     44.870649     44.870649     89.741299
     -4.969970     44.654802     44.654802     89.309603
     -4.959960     43.693002     43.693002     87.386003
     -4.949950     41.972785     41.972785     83.945569
     -4.939940     39.580530     39.580530     79.161059
     -4.929930     36.747326     36.747326     73.494651
     -4.919920     33.866740     33.866740     67.733481
     -4.909910     31.480353     31.480353     62.960705
     -4.899900     30.220443     30.220443     60.440887
     -4.889890     30.691692     30.691692     61.383383
     -4.879880     33.286210     33.286210     66.572420
     -4.869870     37.969725     37.969725     75.939451
     -4.859860     44.131772     44.131772     88.263544
     -4.849850     50.612424     50.612424    101.224847
     -4.839840     55.963211     55.963211    111.926421
     -4.829830     58.881122     58.881122    117.762244
     -4.819820     58.640919     58.640919    117.281837
     -4.809810     55.325523     55.325523    110.651045
     -4.799800     49.747745     49.747745     99.495490
     -4.789790     43.115409     43.115409     86.230818
     -4.779780     36.613850     36.613850     73.227700
     -4.769770     31.091335     31.091335     62.182669
     -4.759760     26.942695     26.942695     53.885390
     -4.749750     24.169136     24.169136     48.338271
     -4.739740     22.523533     22.523533     45.047065
     -4.729730     21.653249     21.653249     43.306497
     -4.719720     21.196500     21.196500     42.393001
     -4.709710     20.831061     20.831061     41.662122
     -4.699700     20.295262     20.295262     40.590523
     -4.689690     19.403999     19.403999     38.807998
     -4.679680     18.075305     18.075305     36.150610
     -4.669670     16.369489     16.369489     32.738978
     -4.659660     14.526232     14.526232     29.052464
     -4.649650     12.973559     12.973559     25.947118
     -4.639640     12.284169     12.284169     24.568338
     -4.629630     13.068962     13.068962     26.137924
     -4.619620     15.817792     15.817792     31.635584
     -4.609610     20.718649     20.718649     41.437297
     -4.599600     27.507316     27.507316     55.014632
     -4.589590     35.414141     35.414141     70.828282
     -4.579580     43.266549     43.266549     86.533097
     -4.569570     49.760056     49.760056     99.520113
     -4.559560     53.833894     53.833894    107.667788
     -4.549550     55.017712     55.017712    110.035423
     -4.539540     53.601230     53.601230    107.202460
     -4.529530     50.541005     50.541005    101.082010
     -4.519520     47.131965     47.131965     94.263931
     -4.509510     44.575971     44.575971     89.151942
     -4.499499     43.619022     43.619022     87.238045
     -4.489489     44.385254     44.385254     88.770508
     -4.479479     46.438237     46.438237     92.876474
     -4.469469     49.003002     49.003002     98.006004
     -4.459459     51.233304     51.233304    102.466608
     -4.449449     52.423553     52.423553    104.847106
     -4.439439     52.122590     52.122590    104.245180
     -4.429429     50.166029     50.166029    100.332057
     -4.419419     46.670181     46.670181     93.340361
     -4.409409     42.015170     42.015170     84.030340
     -4.399399     36.809014     36.809014     73.618028
     -4.389389     31.802719     31.802719     63.605438
     -4.379379     27.741047     27.741047     55.482094
     -4.369369     25.177220     25.177220     50.354440
     -4.359359     24.320034     24.320034     48.640067
     -4.349349     24.985670     24.985670     49.971340
     -4.339339     26.685192     26.685192     53.370385
     -4.329329     28.815000     28.815000     57.629999
     -4.319319     30.869437     30.869437     61.738874
     -4.309309     32.589501     32.589501     65.179002
     -4.299299     33.998266     33.998266     67.996533
     -4.289289     35.326311     35.326311     70.652623
     -4.279279     36.868749     36.868749     73.737498
     -4.269269     38.826675     38.826675     77.653350
     -4.259259     41.179625     41.179625     82.359249
     -4.249249     43.628024     43.628024     87.256048
     -4.239239     45.637141     45.637141     91.274282
     -4.229229     46.591689     46.591689     93.183378
     -4.219219     46.023189     46.023189     92.046378
     -4.209209     43.819375     43.819375     87.638750
     -4.199199     40.308600     40.308600     80.617200
     -4.189189     36.161402     36.161402     72.322804
     -4.179179     32.147165     32.147165     64.294330
     -4.169169     28.865475     28.865475     57.730951
     -4.159159     26.583224     26.583224     53.166448
     -4.149149     25.243566     25.243566     50.487132
     -4.139139     24.617302     24.617302     49.234604
     -4.129129     24.499249     24.499249     48.998498
     -4.119119     24.841871     24.841871     49.683743
     -4.109109     25.759018     25.759018     51.518037
     -4.099099     27.399279     27.399279     54.798558
     -4.089089     29.755326     29.755326     59.510651
     -4.079079     32.517543     32.517543     65.035085
     -4.069069     35.072682     35.072682     70.145365
     -4.059059     36.681500     36.681500     73.363000
     -4.049049     36.768750     36.768750     73.537500
     -4.039039     35.183008     35.183008     70.366016
     -4.029029     32.287673     32.287673     64.575345
     -4.019019     28.834430     28.834430     57.668859
     -4.009009     25.691180     25.691180     51.382359
     -3.998999     23.568787     23.568787     47.137573
     -3.988989     22.870560     22.870560     45.741119
     -3.978979     23.697433     23.697433     47.394867
     -3.968969     25.948978     25.948978     51.897956
     -3.958959     29.427048     29.427048     58.854095
     -3.948949     33.885697     33.885697     67.771394
     -3.938939     39.036515     39.036515     78.073030
     -3.928929     44.556698     44.556698     89.113396
     -3.918919     50.132067     50.132067    100.264134
     -3.908909     55.519003     55.519003    111.038006
     -3.898899     60.573438     60.573438    121.146875
     -3.888889     65.204168     65.204168    130.408337
     -3.878879     69.258165     69.258165    138.516331
     -3.868869     72.402643     72.402643    144.805286
     -3.858859     74.092043     74.092043    148.184085
     -3.848849     73.677019     73.677019    147.354039
     -3.838839     70.638562     70.638562    141.277125
     -3.828829     64.852848     64.852848    129.705696
     -3.818819     56.758193     56.758193    113.516387
     -3.808809     47.329914     47.329914     94.659827
     -3.798799     37.856470     37.856470     75.712940
     -3.788789     29.601700     29.601700     59.203400
     -3.778779     23.482620     23.482620     46.965239
     -3.768769     19.872231     19.872231     39.744462
     -3.758759     18.574091     18.574091     37.148182
     -3.748749     18.950105     18.950105     37.900211
     -3.738739     20.143673     20.143673     40.287346
     -3.728729     21.330726     21.330726     42.661452
     -3.718719     21.939140     21.939140     43.878280
     -3.708709     21.790097     21.790097     43.580194
     -3.698699     21.129606     21.129606     42.259211
     -3.688689     20.537721     20.537721     41.075442
     -3.678679     20.730608     20.730608     41.461216
     -3.668669     22.304352     22.304352     44.608705
     -3.658659     25.498841     25.498841     50.997681
     -3.648649     30.068204     30.068204     60.136408
     -3.638639     35.316593     35.316593     70.633187
     -3.628629     40.295777     40.295777     80.591553
     -3.618619     44.089766     44.089766     88.179533
     -3.608609     46.071593     46.071593     92.143186
     -3.598599     46.036054     46.036054     92.072109
     -3.588589     44.179677     44.179677     88.359354
     -3.578579     40.970998     40.970998     81.941996
     -3.568569     36.986125     36.986125     73.972250
     -3.558559     32.767474     32.767474     65.534947
     -3.548549     28.726754     28.726754     57.453508
     -3.538539     25.091971     25.091971     50.183941
     -3.528529     21.900281     21.900281     43.800561
     -3.518519     19.043473     19.043473     38.086947
     -3.508509     16.360146     16.360146     32.720292
     -3.498498     13.742727     13.742727     27.485454
     -3.488488     11.212558     11.212558     22.425115
     -3.478478      8.929510      8.929510     17.859019
     -3.468468      7.136218      7.136218     14.272436
     -3.458458      6.066577      6.066577     12.133154
     -3.448448      5.856392      5.856392     11.712784
     -3.438438      6.484128      6.484128     12.968255
     -3.428428      7.756361      7.756361     15.512722
     -3.418418      9.344466      9.344466     18.688933
     -3.408408     10.871234     10.871234     21.742469
     -3.398398     12.030294     12.030294     24.060588
     -3.388388     12.700093     12.700093     25.400186
     -3.378378     13.003984     13.003984     26.007967
     -3.368368     13.283462     13.283462     26.566923
     -3.358358     13.989703     13.989703     27.979406
     -3.348348     15.536193     15.536193     31.072386
     -3.338338     18.167166     18.167166     36.334331
     -3.328328     21.877044     21.877044     43.754088
     -3.318318     26.384897     26.384897     52.769793
     -3.308308     31.152951     31.152951     62.305902
     -3.298298     35.448531     35.448531     70.897062
     -3.288288     38.464136     38.464136     76.928271
     -3.278278     39.500091     39.500091     79.000182
     -3.268268     38.171328     38.171328     76.342657
     -3.258258     34.555764     34.555764     69.111529
     -3.248248     29.201938     29.201938     58.403875
     -3.238238     22.973215     22.973215     45.946430
     -3.228228     16.790253     16.790253     33.580507
     -3.218218     11.384231     11.384231     22.768462
     -3.208208      7.157655      7.157655     14.315309
     -3.198198      4.184193      4.184193      8.368387
     -3.188188      2.311684      2.311684      4.623368
     -3.178178      1.301531      1.301531      2.603062
     -3.168168      0.948222      0.948222      1.896444
     -3.158158      1.152904      1.152904      2.305809
     -3.148148      1.949866      1.949866      3.899733
     -3.138138      3.493123      3.493123      6.986246
     -3.128128      6.007046      6.007046     12.014093
     -3.118118      9.702367      9.702367     19.404734
     -3.108108     14.666214     14.666214     29.332429
     -3.098098     20.752153     20.752153     41.504306
     -3.088088     27.513279     27.513279     55.026558
     -3.078078     34.223332     34.223332     68.446663
     -3.068068     40.006897     40.006897     80.013793
     -3.058058     44.053799     44.053799     88.107598
     -3.048048     45.845897     45.845897     91.691793
     -3.038038     45.305785     45.305785     90.611569
     -3.028028     42.804210     42.804210     85.608419
     -3.018018     39.026096     39.026096     78.052193
     -3.008008     34.758484     34.758484     69.516969
     -2.997998     30.690558     30.690558     61.381116
     -2.987988     27.295196     27.295196     54.590392
     -2.977978     24.813297     24.813297     49.626594
     -2.967968     23.317535     23.317535     46.635070
     -2.957958     22.808482     22.808482     45.616964
     -2.947948     23.292153     23.292153     46.584306
     -2.937938     24.798727     24.798727     49.597455
     -2.927928     27.328147     27.328147     54.656294
     -2.917918     30.748120     30.748120     61.496241
     -2.907908     34.707418     34.707418     69.414835
     -2.897898     38.634821     38.634821     77.269642
     -2.887888     41.856244     41.856244     83.712487
     -2.877878     43.795251     43.795251     87.590503
     -2.867868     44.166538     44.166538     88.333075
     -2.857858     43.065380     43.065380     86.130760
     -2.847848     40.905442     40.905442     81.810883
     -2.837838     38.234231     38.234231     76.468463
     -2.827828     35.516242     35.516242     71.032485
     -2.817818     32.985865     32.985865     65.971731
     -2.807808     30.631480     30.631480     61.262961
     -2.797798     28.302403     28.302403     56.604806
     -2.787788     25.868839     25.868839     51.737678
     -2.777778     23.343180     23.343180     46.686360
     -2.767768     20.898983     20.898983     41.797966
     -2.757758     18.785688     18.785688     37.571376
     -2.747748     17.197929     17.197929     34.395858
     -2.737738     16.183380     16.183380     32.366760
     -2.727728     15.647042     15.647042     31.294084
     -2.717718     15.447383     15.447383     30.894766
     -2.707708     15.518931     15.518931     31.037862
     -2.697698     15.936092     15.936092     31.872185
     -2.687688     16.869016     16.869016     33.738032
     -2.677678     18.453305     18.453305     36.906609
     -2.667668     20.655827     20.655827     41.311653
     -2.657658     23.227730     23.227730     46.455459
     -2.647648     25.784009     25.784009     51.568019
     -2.637638     27.968074     27.968074     55.936148
     -2.627628     29.603310     29.603310     59.206620
     -2.617618     30.741525     30.741525     61.483050
     -2.607608     31.586382     31.586382     63.172764
     -2.597598     32.350161     32.350161     64.700322
     -2.587588     33.136462     33.136462     66.272925
     -2.577578     33.907716     33.907716     67.815433
     -2.567568     34.527182     34.527182     69.054364
     -2.557558     34.819657     34.819657     69.639314
     -2.547548     34.607186     34.607186     69.214372
     -2.537538     33.725161     33.725161     67.450321
     -2.527528     32.057155     32.057155     64.114311
     -2.517518     29.609276     29.609276     59.218553
     -2.507508     26.593240     26.593240     53.186480
     -2.497497     23.452059     23.452059     46.904118
     -2.487487     20.779449     20.779449     41.558898
     -2.477477     19.145108     19.145108     38.290216
     -2.467467     18.899289     18.899289     37.798578
     -2.457457     20.050256     20.050256     40.100511
     -2.447447     22.276120     22.276120     44.552240
     -2.437437     25.068144     25.068144     50.136289
     -2.427427     27.939699     27.939699     55.879397
     -2.417417     30.603388     30.603388     61.206776
     -2.407407     33.033021     33.033021     66.066042
     -2.397397     35.381572     35.381572     70.763144
     -2.387387     37.796718     37.796718     75.593437
     -2.377377     40.228441     40.228441     80.456883
     -2.367367     42.331960     42.331960     84.663920
     -2.357357     43.527701     43.527701     87.055403
     -2.347347     43.205730     43.205730     86.411461
     -2.337337     40.989678     40.989678     81.979355
     -2.327327     36.941180     36.941180     73.882361
     -2.317317     31.610015     31.610015     63.220029
     -2.307307     25.906591     25.906591     51.813183
     -2.297297     20.853564     20.853564     41.707128
     -2.287287     17.318600     17.318600     34.637200
     -2.277277     15.821717     15.821717     31.643434
     -2.267267     16.463420     16.463420     32.926839
     -2.257257     18.967720     18.967720     37.935439
     -2.247247     22.801541     22.801541     45.603083
     -2.237237     27.322200     27.322200     54.644401
     -2.227227     31.908598     31.908598     63.817197
     -2.217217     36.043615     36.043615     72.087229
     -2.207207     39.336045     39.336045     78.672089
     -2.197197     41.498858     41.498858     82.997717
     -2.187187     42.323745     42.323745     84.647491
     -2.177177     41.691390     41.691390     83.382780
     -2.167167     39.625570     39.625570     79.251140
     -2.157157     36.354145     36.354145     72.708290
     -2.147147     32.315424     32.315424     64.630847
     -2.137137     28.069604     28.069604     56.139208
     -2.127127     24.134258     24.134258     48.268515
     -2.117117     20.819986     20.819986     41.639972
     -2.107107     18.153698     18.153698     36.307397
     -2.097097     15.930416     15.930416     31.860831
     -2.087087     13.860635     13.860635     27.721271
     -2.077077     11.729342     11.729342     23.458684
     -2.067067      9.486331      9.486331     18.972662
     -2.057057      7.237311      7.237311     14.474623
     -2.047047      5.163382      5.163382     10.326763
     -2.037037      3.426367      3.426367      6.852734
     -2.027027      2.108373      2.108373      4.216745
     -2.017017      1.201972      1.201972      2.403945
     -2.007007      0.637954      0.637954      1.275908
     -1.996997      0.325884      0.325884      0.651769
     -1.986987      0.188228      0.188228      0.376457
     -1.976977      0.181000      0.181000      0.362000
     -1.966967      0.303080      0.303080      0.606160
     -1.956957      0.598332      0.598332      1.196664
     -1.946947      1.151196      1.151196      2.302391
     -1.936937      2.072064      2.072064      4.144128
     -1.926927      3.468130      3.468130      6.936259
     -1.916917      5.400903      5.400903     10.801806
     -1.906907      7.841468      7.841468     15.682936
     -1.896897     10.642473     10.642473     21.284946
     -1.886887     13.544629     13.544629     27.089258
     -1.876877     16.223090     16.223090     32.446179
     -1.866867     18.361772     18.361772     36.723544
     -1.856857     19.731806     19.731806     39.463613
     -1.846847     20.249606     20.249606     40.499212
     -1.836837     19.997342     19.997342     39.994683
     -1.826827     19.197529     19.197529     38.395057
     -1.816817     18.143062     18.143062     36.286125
     -1.806807     17.098411     17.098411     34.196823
     -1.796797     16.205938     16.205938     32.411877
     -1.786787     15.440974     15.440974     30.881948
     -1.776777     14.645141     14.645141     29.290282
     -1.766767     13.629385     13.629385     27.258771
     -1.756757     12.297820     12.297820     24.595640
     -1.746747     10.729000     10.729000     21.458000
     -1.736737      9.173846      9.173846     18.347692
     -1.726727      7.973527      7.973527     15.947054
     -1.716717      7.437843      7.437843     14.875687
     -1.706707      7.736421      7.736421     15.472842
     -1.696697      8.842415      8.842415     17.684829
     -1.686687     10.544088     10.544088     21.088176
     -1.676677     12.514393     12.514393     25.028785
     -1.666667     14.408112     14.408112     28.816224
     -1.656657     15.946166     15.946166     31.892333
     -1.646647     16.954799     16.954799     33.909598
     -1.636637     17.354415     17.354415     34.708829
     -1.626627     17.124334     17.124334     34.248668
