# EIG2DOS: Utility for SIESTA to obtain the electronic density of states
#  E. Artacho, Apr 1999, A. Garcia, Apr 2012
#  Nick R. Papior, Feb 2017
# ------------------------------------------
# Eigenvalues calculated from a non-polarized calculation
# Eigenvalues read from siesta.EIG
# Kpoint weights read from siesta.KP
# Using smearing parameter:   0.0500
# Using 1000 points in the energy range
# Selected bands: 1 to: 2981
# Emin, Emax in file for selected band(s):    -27.0346119    218.3056090
# Nbands, Nspin, Nk   =   2981     1     1
# E_F                 =    -4.3045 eV --> (shifted to ZERO)
# Broadening          =     0.0500 eV
#
#        E            N(up)  (=)   N(down)         Ntot
     -5.000000     45.896864     45.896864     91.793729
     -4.989990     49.360348     49.360348     98.720697
     -4.979980     51.195130     51.195130    102.390259
     -4.969970     51.265456     51.265456    102.530912
     -4.959960     49.699274     49.699274     99.398548
     -4.949950     46.832629     46.832629     93.665257
     -4.939940     43.125632     43.125632     86.251264
     -4.929930     39.094748     39.094748     78.189495
     -4.919920     35.284744     35.284744     70.569488
     -4.909910     32.268598     32.268598     64.537196
     -4.899900     30.634445     30.634445     61.268891
     -4.889890     30.911970     30.911970     61.823941
     -4.879880     33.417550     33.417550     66.835100
     -4.869870     38.055421     38.055421     76.110841
     -4.859860     44.173763     44.173763     88.347525
     -4.849850     50.593158     50.593158    101.186315
     -4.839840     55.866023     55.866023    111.732046
     -4.829830     58.704967     58.704967    117.409933
     -4.819820     58.405755     58.405755    116.811510
     -4.809810     55.067786     55.067786    110.135572
     -4.799800     49.509346     49.509346     99.018691
     -4.789790     42.931823     42.931823     85.863647
     -4.779780     36.505884     36.505884     73.011768
     -4.769770     31.062353     31.062353     62.124705
     -4.759760     26.980608     26.980608     53.961217
     -4.749750     24.251446     24.251446     48.502892
     -4.739740     22.623750     22.623750     45.247500
     -4.729730     21.747238     21.747238     43.494476
     -4.719720     21.267356     21.267356     42.534712
     -4.709710     20.871359     20.871359     41.742719
     -4.699700     20.306303     20.306303     40.612606
     -4.689690     19.392712     19.392712     38.785425
     -4.679680     18.050286     18.050286     36.100572
     -4.669670     16.337741     16.337741     32.675482
     -4.659660     14.491646     14.491646     28.983292
     -4.649650     12.937389     12.937389     25.874778
     -4.639640     12.247096     12.247096     24.494192
     -4.629630     13.033813     13.033813     26.067626
     -4.619620     15.791604     15.791604     31.583208
     -4.609610     20.712614     20.712614     41.425228
     -4.599600     27.533691     27.533691     55.067382
     -4.589590     35.480641     35.480641     70.961282
     -4.579580     43.370614     43.370614     86.741229
     -4.569570     49.886324     49.886324     99.772649
     -4.559560     53.957065     53.957065    107.914129
     -4.549550     55.109844     55.109844    110.219688
     -4.539540     53.639010     53.639010    107.278020
     -4.529530     50.506910     50.506910    101.013819
     -4.519520     47.004703     47.004703     94.009407
     -4.509510     44.309596     44.309596     88.619192
     -4.499499     43.115590     43.115590     86.231181
     -4.489489     43.471943     43.471943     86.943886
     -4.479479     44.865380     44.865380     89.730759
     -4.469469     46.481437     46.481437     92.962875
     -4.459459     47.522276     47.522276     95.044553
     -4.449449     47.459628     47.459628     94.919255
     -4.439439     46.149368     46.149368     92.298736
     -4.429429     43.799586     43.799586     87.599171
     -4.419419     40.838429     40.838429     81.676858
     -4.409409     37.753277     37.753277     75.506555
     -4.399399     34.964220     34.964220     69.928440
     -4.389389     32.761532     32.761532     65.523064
     -4.379379     31.298428     31.298428     62.596857
     -4.369369     30.608382     30.608382     61.216764
     -4.359359     30.621204     30.621204     61.242409
     -4.349349     31.175392     31.175392     62.350784
     -4.339339     32.043868     32.043868     64.087735
     -4.329329     32.988149     32.988149     65.976298
     -4.319319     33.833503     33.833503     67.667006
     -4.309309     34.534400     34.534400     69.068799
     -4.299299     35.195474     35.195474     70.390948
     -4.289289     36.031148     36.031148     72.062297
     -4.279279     37.272801     37.272801     74.545601
     -4.269269     39.051094     39.051094     78.102189
     -4.259259     41.290260     41.290260     82.580521
     -4.249249     43.655887     43.655887     87.311773
     -4.239239     45.595357     45.595357     91.190714
     -4.229229     46.486808     46.486808     92.973617
     -4.219219     45.862103     45.862103     91.724206
     -4.209209     43.613470     43.613470     87.226941
     -4.199199     40.075784     40.075784     80.151568
     -4.189189     35.925735     35.925735     71.851470
     -4.179179     31.935859     31.935859     63.871717
     -4.169169     28.703875     28.703875     57.407749
     -4.159159     26.489477     26.489477     52.978954
     -4.149149     25.225225     25.225225     50.450449
     -4.139139     24.671463     24.671463     49.342926
     -4.129129     24.616112     24.616112     49.232224
     -4.119119     25.009547     25.009547     50.019095
     -4.109109     25.966455     25.966455     51.932911
     -4.099099     27.635248     27.635248     55.270495
     -4.089089     30.004176     30.004176     60.008352
     -4.079079     32.755237     32.755237     65.510474
     -4.069069     35.267289     35.267289     70.534578
     -4.059059     36.800005     36.800005     73.600009
     -4.049049     36.787944     36.787944     73.575888
     -4.039039     35.099086     35.099086     70.198173
     -4.029029     32.119353     32.119353     64.238706
     -4.019019     28.617878     28.617878     57.235756
     -4.009009     25.469444     25.469444     50.938889
     -3.998999     23.380831     23.380831     46.761662
     -3.988989     22.744139     22.744139     45.488279
     -3.978979     23.647074     23.647074     47.294147
     -3.968969     25.977523     25.977523     51.955046
     -3.958959     29.528283     29.528283     59.056565
     -3.948949     34.046412     34.046412     68.092824
     -3.938939     39.237919     39.237919     78.475838
     -3.928929     44.776068     44.776068     89.552137
     -3.918919     50.345427     50.345427    100.690853
     -3.908909     55.704744     55.704744    111.409487
     -3.898899     60.715878     60.715878    121.431757
     -3.888889     65.295615     65.295615    130.591230
     -3.878879     69.298464     69.298464    138.596928
     -3.868869     72.396350     72.396350    144.792700
     -3.858859     74.044678     74.044678    148.089356
     -3.848849     73.592608     73.592608    147.185215
     -3.838839     70.520047     70.520047    141.040093
     -3.828829     64.705155     64.705155    129.410310
     -3.818819     56.591786     56.591786    113.183572
     -3.808809     47.162046     47.162046     94.324093
     -3.798799     37.708605     37.708605     75.417211
     -3.788789     29.493802     29.493802     58.987604
     -3.778779     23.426821     23.426821     46.853642
     -3.768769     19.868662     19.868662     39.737324
     -3.758759     18.610544     18.610544     37.221088
     -3.748749     19.005581     19.005581     38.011161
     -3.738739     20.194479     20.194479     40.388959
     -3.728729     21.357124     21.357124     42.714248
     -3.718719     21.930502     21.930502     43.861003
     -3.708709     21.747142     21.747142     43.494284
     -3.698699     21.063212     21.063212     42.126424
     -3.688689     20.464894     20.464894     40.929788
     -3.678679     20.669051     20.669051     41.338102
     -3.668669     22.267463     22.267463     44.534926
     -3.658659     25.492653     25.492653     50.985307
     -3.648649     30.090954     30.090954     60.181908
     -3.638639     35.360507     35.360507     70.721014
     -3.628629     40.349952     40.349952     80.699903
     -3.618619     44.142917     44.142917     88.285834
     -3.608609     46.114023     46.114023     92.228045
     -3.598599     46.060908     46.060908     92.121816
     -3.588589     44.183801     44.183801     88.367603
     -3.578579     40.955411     40.955411     81.910822
     -3.568569     36.955626     36.955626     73.911252
     -3.558559     32.728960     32.728960     65.457920
     -3.548549     28.686535     28.686535     57.373070
     -3.538539     25.053272     25.053272     50.106543
     -3.528529     21.862371     21.862371     43.724742
     -3.518519     19.003054     19.003054     38.006107
     -3.508509     16.314295     16.314295     32.628589
     -3.498498     13.691766     13.691766     27.383531
     -3.488488     11.161305     11.161305     22.322609
     -3.478478      8.886373      8.886373     17.772745
     -3.468468      7.110666      7.110666     14.221333
     -3.458458      6.066057      6.066057     12.132113
     -3.448448      5.883656      5.883656     11.767312
     -3.438438      6.535661      6.535661     13.071322
     -3.428428      7.822433      7.822433     15.644866
     -3.418418      9.411191      9.411191     18.822382
     -3.408408     10.924542     10.924542     21.849084
     -3.398398     12.060765     12.060765     24.121530
     -3.388388     12.706806     12.706806     25.413612
     -3.378378     12.995527     12.995527     25.991054
     -3.368368     13.275418     13.275418     26.550836
     -3.358358     13.999554     13.999554     27.999108
     -3.348348     15.577690     15.577690     31.155379
     -3.338338     18.246092     18.246092     36.492184
     -3.328328     21.989259     21.989259     43.978518
     -3.318318     26.516552     26.516552     53.033104
     -3.308308     31.282525     31.282525     62.565050
     -3.298298     35.550646     35.550646     71.101292
     -3.288288     38.515115     38.515115     77.030230
     -3.278278     39.484359     39.484359     78.968718
     -3.268268     38.086526     38.086526     76.173053
     -3.258258     34.414127     34.414127     68.828254
     -3.248248     29.026787     29.026787     58.053575
     -3.238238     22.791814     22.791814     45.583628
     -3.228228     16.626088     16.626088     33.252176
     -3.218218     11.251846     11.251846     22.503692
     -3.208208      7.061499      7.061499     14.122998
     -3.198198      4.120807      4.120807      8.241614
     -3.188188      2.273239      2.273239      4.546477
     -3.178178      1.278604      1.278604      2.557209
     -3.168168      0.930202      0.930202      1.860404
     -3.158158      1.124829      1.124829      2.249658
     -3.148148      1.884450      1.884450      3.768900
     -3.138138      3.336773      3.336773      6.673547
     -3.128128      5.660111      5.660111     11.320223
     -3.118118      8.998031      8.998031     17.996062
     -3.108108     13.359455     13.359455     26.718909
     -3.098098     18.536928     18.536928     37.073857
     -3.088088     24.086104     24.086104     48.172208
     -3.078078     29.397316     29.397316     58.794632
     -3.068068     33.850873     33.850873     67.701745
     -3.058058     36.997544     36.997544     73.995089
     -3.048048     38.677595     38.677595     77.355189
     -3.038038     39.013719     39.013719     78.027439
     -3.028028     38.283128     38.283128     76.566256
     -3.018018     36.750635     36.750635     73.501270
     -3.008008     34.572672     34.572672     69.145343
     -2.997998     31.835001     31.835001     63.670002
     -2.987988     28.693328     28.693328     57.386656
     -2.977978     25.511664     25.511664     51.023329
     -2.967968     22.890275     22.890275     45.780550
     -2.957958     21.542037     21.542037     43.084074
     -2.947948     22.064166     22.064166     44.128332
     -2.937938     24.706705     24.706705     49.413411
     -2.927928     29.237036     29.237036     58.474072
     -2.917918     34.954685     34.954685     69.909370
     -2.907908     40.852257     40.852257     81.704515
     -2.897898     45.869767     45.869767     91.739533
     -2.887888     49.162695     49.162695     98.325390
     -2.877878     50.302327     50.302327    100.604654
     -2.867868     49.349354     49.349354     98.698708
     -2.857858     46.782244     46.782244     93.564488
     -2.847848     43.308877     43.308877     86.617753
     -2.837838     39.628754     39.628754     79.257507
     -2.827828     36.229955     36.229955     72.459909
     -2.817818     33.291444     33.291444     66.582887
     -2.807808     30.719151     30.719151     61.438302
     -2.797798     28.287986     28.287986     56.575973
     -2.787788     25.816005     25.816005     51.632011
     -2.777778     23.284890     23.284890     46.569779
     -2.767768     20.851553     20.851553     41.703106
     -2.757758     18.755517     18.755517     37.511035
     -2.747748     17.184111     17.184111     34.368222
     -2.737738     16.179621     16.179621     32.359242
     -2.727728     15.644664     15.644664     31.289328
     -2.717718     15.439138     15.439138     30.878275
     -2.707708     15.502062     15.502062     31.004124
     -2.697698     15.913166     15.913166     31.826332
     -2.687688     16.846288     16.846288     33.692576
     -2.677678     18.437830     18.437830     36.875660
     -2.667668     20.653133     20.653133     41.306266
     -2.657658     23.241232     23.241232     46.482464
     -2.647648     25.815940     25.815940     51.631879
     -2.637638     28.020556     28.020556     56.041112
     -2.627628     29.678191     29.678191     59.356382
     -2.617618     30.838692     30.838692     61.677385
     -2.607608     31.701698     31.701698     63.403395
     -2.597598     32.474714     32.474714     64.949428
     -2.587588     33.258024     33.258024     66.516049
     -2.577578     34.013686     34.013686     68.027373
     -2.567568     34.607231     34.607231     69.214463
     -2.557558     34.866714     34.866714     69.733428
     -2.547548     34.616992     34.616992     69.233985
     -2.537538     33.695982     33.695982     67.391963
     -2.527528     31.991007     31.991007     63.982014
     -2.517518     29.514329     29.514329     59.028659
     -2.507508     26.485333     26.485333     52.970666
     -2.497497     23.353066     23.353066     46.706133
     -2.487487     20.711927     20.711927     41.423855
     -2.477477     19.125025     19.125025     38.250050
     -2.467467     18.930117     18.930117     37.860234
     -2.457457     20.121389     20.121389     40.242779
     -2.447447     22.366681     22.366681     44.733362
     -2.437437     25.154795     25.154795     50.309589
     -2.427427     28.005237     28.005237     56.010474
     -2.417417     30.642487     30.642487     61.284975
     -2.407407     33.052664     33.052664     66.105328
     -2.397397     35.396047     35.396047     70.792094
     -2.387387     37.819403     37.819403     75.638806
     -2.377377     40.264008     40.264008     80.528016
     -2.367367     42.372502     42.372502     84.745003
     -2.357357     43.554686     43.554686     87.109371
     -2.347347     43.197190     43.197190     86.394380
     -2.337337     40.929647     40.929647     81.859294
     -2.327327     36.827204     36.827204     73.654407
     -2.317317     31.455362     31.455362     62.910724
     -2.307307     25.736354     25.736354     51.472708
     -2.297297     20.696711     20.696711     41.393422
     -2.287287     17.199692     17.199692     34.399385
     -2.277277     15.755514     15.755514     31.511027
     -2.267267     16.453684     16.453684     32.907368
     -2.257257     19.009483     19.009483     38.018966
     -2.247247     22.884946     22.884946     45.769893
     -2.237237     27.435991     27.435991     54.871981
     -2.227227     32.041960     32.041960     64.083921
     -2.217217     36.185987     36.185987     72.371974
     -2.207207     39.475561     39.475561     78.951122
     -2.197197     41.620985     41.620985     83.241970
     -2.187187     42.411923     42.411923     84.823847
     -2.177177     41.730560     41.730560     83.461119
     -2.167167     39.607531     39.607531     79.215062
     -2.157157     36.281918     36.281918     72.563835
     -2.147147     32.203593     32.203593     64.407186
     -2.137137     27.939601     27.939601     55.879202
     -2.127127     24.006563     24.006563     48.013126
     -2.117117     20.707235     20.707235     41.414469
     -2.107107     18.058162     18.058162     36.116325
     -2.097097     15.846640     15.846640     31.693279
     -2.087087     13.781050     13.781050     27.562099
     -2.077077     11.649377     11.649377     23.298754
     -2.067067      9.406524      9.406524     18.813047
     -2.057057      7.162111      7.162111     14.324223
     -2.047047      5.098209      5.098209     10.196419
     -2.037037      3.374939      3.374939      6.749877
     -2.027027      2.071522      2.071522      4.143044
     -2.017017      1.178028      1.178028      2.356057
     -2.007007      0.623965      0.623965      1.247930
     -1.996997      0.318908      0.318908      0.637816
     -1.986987      0.186241      0.186241      0.372483
     -1.976977      0.183381      0.183381      0.366763
     -1.966967      0.310797      0.310797      0.621593
     -1.956957      0.613890      0.613890      1.227780
     -1.946947      1.178255      1.178255      2.356509
     -1.936937      2.114516      2.114516      4.229032
     -1.926927      3.528578      3.528578      7.057157
     -1.916917      5.478850      5.478850     10.957701
     -1.906907      7.931962      7.931962     15.863924
     -1.896897     10.736108     10.736108     21.472217
     -1.886887     13.629395     13.629395     27.258790
     -1.876877     16.287716     16.287716     32.575432
     -1.866867     18.399373     18.399373     36.798745
     -1.856857     19.742348     19.742348     39.484696
     -1.846847     20.240155     20.240155     40.480311
     -1.836837     19.979865     19.979865     39.959729
     -1.826827     19.184821     19.184821     38.369641
     -1.816817     18.143903     18.143903     36.287805
     -1.806807     17.113280     17.113280     34.226559
     -1.796797     16.224419     16.224419     32.448839
     -1.786787     15.440925     15.440925     30.881849
     -1.776777     14.591756     14.591756     29.183511
     -1.766767     13.470437     13.470437     26.940874
     -1.756757     11.951479     11.951479     23.902958
     -1.746747     10.064696     10.064696     20.129391
     -1.736737      7.994771      7.994771     15.989543
     -1.726727      6.018517      6.018517     12.037035
     -1.716717      4.424057      4.424057      8.848115
     -1.706707      3.454896      3.454896      6.909793
     -1.696697      3.293028      3.293028      6.586055
     -1.686687      4.062224      4.062224      8.124448
     -1.676677      5.818552      5.818552     11.637105
     -1.666667      8.508703      8.508703     17.017406
     -1.656657     11.909126     11.909126     23.818253
     -1.646647     15.589295     15.589295     31.178590
     -1.636637     18.948253     18.948253     37.896505
     -1.626627     21.344669     21.344669     42.689338
