# EIG2DOS: Utility for SIESTA to obtain the electronic density of states
#  E. Artacho, Apr 1999, A. Garcia, Apr 2012
#  Nick R. Papior, Feb 2017
# ------------------------------------------
# Eigenvalues calculated from a non-polarized calculation
# Eigenvalues read from siesta.EIG
# Kpoint weights read from siesta.KP
# Using smearing parameter:   0.0500
# Using 1000 points in the energy range
# Selected bands: 1 to: 2981
# Emin, Emax in file for selected band(s):    -27.0714542    218.3459900
# Nbands, Nspin, Nk   =   2981     1     1
# E_F                 =    -4.2621 eV --> (shifted to ZERO)
# Broadening          =     0.0500 eV
#
#        E            N(up)  (=)   N(down)         Ntot
     -5.000000     36.111730     36.111730     72.223459
     -4.989990     39.192882     39.192882     78.385764
     -4.979980     41.737973     41.737973     83.475946
     -4.969970     43.269770     43.269770     86.539541
     -4.959960     43.484520     43.484520     86.969040
     -4.949950     42.328430     42.328430     84.656860
     -4.939940     40.011657     40.011657     80.023315
     -4.929930     36.971397     36.971397     73.942795
     -4.919920     33.809819     33.809819     67.619637
     -4.909910     31.224289     31.224289     62.448578
     -4.899900     29.923506     29.923506     59.847012
     -4.889890     30.505708     30.505708     61.011416
     -4.879880     33.288168     33.288168     66.576336
     -4.869870     38.124775     38.124775     76.249550
     -4.859860     44.301625     44.301625     88.603251
     -4.849850     50.610328     50.610328    101.220657
     -4.839840     55.635348     55.635348    111.270695
     -4.829830     58.177600     58.177600    116.355201
     -4.819820     57.641942     57.641942    115.283884
     -4.809810     54.211476     54.211476    108.422952
     -4.799800     48.731394     48.731394     97.462787
     -4.789790     42.370706     42.370706     84.741413
     -4.779780     36.230366     36.230366     72.460732
     -4.769770     31.063953     31.063953     62.127907
     -4.759760     27.188667     27.188667     54.377335
     -4.749750     24.558665     24.558665     49.117330
     -4.739740     22.913719     22.913719     45.827438
     -4.729730     21.920008     21.920008     43.840016
     -4.719720     21.259879     21.259879     42.519758
     -4.709710     20.668328     20.668328     41.336657
     -4.699700     19.938306     19.938306     39.876612
     -4.689690     18.924008     18.924008     37.848016
     -4.679680     17.564043     17.564043     35.128085
     -4.669670     15.927198     15.927198     31.854397
     -4.659660     14.260067     14.260067     28.520133
     -4.649650     13.001358     13.001358     26.002715
     -4.639640     12.731965     12.731965     25.463929
     -4.629630     14.050718     14.050718     28.101436
     -4.619620     17.393694     17.393694     34.787387
     -4.609610     22.842224     22.842224     45.684448
     -4.599600     29.986431     29.986431     59.972862
     -4.589590     37.917276     37.917276     75.834552
     -4.579580     45.394764     45.394764     90.789528
     -4.569570     51.176251     51.176251    102.352503
     -4.559560     54.407276     54.407276    108.814553
     -4.549550     54.923588     54.923588    109.847176
     -4.539540     53.327882     53.327882    106.655764
     -4.529530     50.791323     50.791323    101.582646
     -4.519520     48.646652     48.646652     97.293305
     -4.509510     47.927328     47.927328     95.854656
     -4.499499     49.025334     49.025334     98.050667
     -4.489489     51.586850     51.586850    103.173700
     -4.479479     54.669062     54.669062    109.338123
     -4.469469     57.084285     57.084285    114.168570
     -4.459459     57.795615     57.795615    115.591229
     -4.449449     56.222454     56.222454    112.444908
     -4.439439     52.364201     52.364201    104.728403
     -4.429429     46.732367     46.732367     93.464733
     -4.419419     40.155942     40.155942     80.311884
     -4.409409     33.556215     33.556215     67.112431
     -4.399399     27.765656     27.765656     55.531311
     -4.389389     23.414737     23.414737     46.829474
     -4.379379     20.870213     20.870213     41.740426
     -4.369369     20.203442     20.203442     40.406884
     -4.359359     21.190066     21.190066     42.380132
     -4.349349     23.361981     23.361981     46.723962
     -4.339339     26.124318     26.124318     52.248636
     -4.329329     28.916361     28.916361     57.832722
     -4.319319     31.362453     31.362453     62.724907
     -4.309309     33.353902     33.353902     66.707804
     -4.299299     35.030862     35.030862     70.061725
     -4.289289     36.675217     36.675217     73.350434
     -4.279279     38.556347     38.556347     77.112694
     -4.269269     40.781099     40.781099     81.562197
     -4.259259     43.194771     43.194771     86.389541
     -4.249249     45.371557     45.371557     90.743114
     -4.239239     46.717004     46.717004     93.434007
     -4.229229     46.669599     46.669599     93.339198
     -4.219219     44.936023     44.936023     89.872045
     -4.209209     41.654750     41.654750     83.309500
     -4.199199     37.395060     37.395060     74.790119
     -4.189189     32.973137     32.973137     65.946275
     -4.179179     29.165156     29.165156     58.330312
     -4.169169     26.455120     26.455120     52.910241
     -4.159159     24.933833     24.933833     49.867666
     -4.149149     24.380186     24.380186     48.760372
     -4.139139     24.462083     24.462083     48.924166
     -4.129129     24.943129     24.943129     49.886258
     -4.119119     25.790294     25.790294     51.580588
     -4.109109     27.132729     27.132729     54.265458
     -4.099099     29.095778     29.095778     58.191556
     -4.089089     31.599634     31.599634     63.199268
     -4.079079     34.241396     34.241396     68.482792
     -4.069069     36.350028     36.350028     72.700056
     -4.059059     37.217112     37.217112     74.434224
     -4.049049     36.402573     36.402573     72.805145
     -4.039039     33.958297     33.958297     67.916594
     -4.029029     30.447760     30.447760     60.895520
     -4.019019     26.750784     26.750784     53.501569
     -4.009009     23.759134     23.759134     47.518269
     -3.998999     22.116027     22.116027     44.232055
     -3.988989     22.106177     22.106177     44.212355
     -3.978979     23.702732     23.702732     47.405465
     -3.968969     26.694439     26.694439     53.388878
     -3.958959     30.799811     30.799811     61.599623
     -3.948949     35.721420     35.721420     71.442839
     -3.938939     41.155951     41.155951     82.311903
     -3.928929     46.804295     46.804295     93.608590
     -3.918919     52.404780     52.404780    104.809559
     -3.908909     57.768700     57.768700    115.537399
     -3.898899     62.773921     62.773921    125.547841
     -3.888889     67.293320     67.293320    134.586640
     -3.878879     71.085995     71.085995    142.171991
     -3.868869     73.722011     73.722011    147.444022
     -3.858859     74.612094     74.612094    149.224189
     -3.848849     73.165948     73.165948    146.331896
     -3.838839     69.031231     69.031231    138.062462
     -3.828829     62.310343     62.310343    124.620685
     -3.818819     53.647425     53.647425    107.294850
     -3.808809     44.129770     44.129770     88.259541
     -3.798799     35.029841     35.029841     70.059682
     -3.788789     27.482490     27.482490     54.964981
     -3.778779     22.212618     22.212618     44.425236
     -3.768769     19.397507     19.397507     38.795015
     -3.758759     18.689718     18.689718     37.379436
     -3.748749     19.372742     19.372742     38.745485
     -3.738739     20.591646     20.591646     41.183293
     -3.728729     21.594838     21.594838     43.189676
     -3.718719     21.930890     21.930890     43.861781
     -3.708709     21.557467     21.557467     43.114934
     -3.698699     20.835772     20.835772     41.671543
     -3.688689     20.406014     20.406014     40.812028
     -3.678679     20.968796     20.968796     41.937592
     -3.668669     23.030001     23.030001     46.060002
     -3.658659     26.690798     26.690798     53.381597
     -3.648649     31.563103     31.563103     63.126205
     -3.638639     36.853332     36.853332     73.706664
     -3.628629     41.591137     41.591137     83.182274
     -3.618619     44.915155     44.915155     89.830310
     -3.608609     46.302829     46.302829     92.605658
     -3.598599     45.664127     45.664127     91.328254
     -3.588589     43.289708     43.289708     86.579417
     -3.578579     39.706828     39.706828     79.413655
     -3.568569     35.515045     35.515045     71.030090
     -3.558559     31.250474     31.250474     62.500948
     -3.548549     27.294131     27.294131     54.588261
     -3.538539     23.825783     23.825783     47.651565
     -3.528529     20.828802     20.828802     41.657604
     -3.518519     18.151622     18.151622     36.303244
     -3.508509     15.612789     15.612789     31.225579
     -3.498498     13.110433     13.110433     26.220867
     -3.488488     10.688124     10.688124     21.376248
     -3.478478      8.529349      8.529349     17.058697
     -3.468468      6.888757      6.888757     13.777514
     -3.458458      5.994752      5.994752     11.989504
     -3.448448      5.961578      5.961578     11.923156
     -3.438438      6.736732      6.736732     13.473464
     -3.428428      8.096423      8.096423     16.192846
     -3.418418      9.694000      9.694000     19.388000
     -3.408408     11.157048     11.157048     22.314096
     -3.398398     12.211191     12.211191     24.422381
     -3.388388     12.788405     12.788405     25.576811
     -3.378378     13.071879     13.071879     26.143758
     -3.368368     13.450273     13.450273     26.900546
     -3.358358     14.394052     14.394052     28.788104
     -3.348348     16.300710     16.300710     32.601419
     -3.338338     19.362379     19.362379     38.724759
     -3.328328     23.488247     23.488247     46.976495
     -3.318318     28.287173     28.287173     56.574347
     -3.308308     33.105850     33.105850     66.211700
     -3.298298     37.125780     37.125780     74.251560
     -3.288288     39.525475     39.525475     79.050951
     -3.278278     39.690341     39.690341     79.380683
     -3.268268     37.408819     37.408819     74.817639
     -3.258258     32.967343     32.967343     65.934686
     -3.248248     27.083692     27.083692     54.167384
     -3.238238     20.693352     20.693352     41.386703
     -3.228228     14.678927     14.678927     29.357853
     -3.218218      9.656696      9.656696     19.313392
     -3.208208      5.893957      5.893957     11.787914
     -3.198198      3.358836      3.358836      6.717673
     -3.188188      1.848833      1.848833      3.697666
     -3.178178      1.131422      1.131422      2.262843
     -3.168168      1.051564      1.051564      2.103129
     -3.158158      1.590554      1.590554      3.181109
     -3.148148      2.877203      2.877203      5.754405
     -3.138138      5.152604      5.152604     10.305208
     -3.128128      8.685322      8.685322     17.370644
     -3.118118     13.640293     13.640293     27.280586
     -3.108108     19.928647     19.928647     39.857295
     -3.098098     27.096827     27.096827     54.193653
     -3.088088     34.327137     34.327137     68.654274
     -3.078078     40.594140     40.594140     81.188281
     -3.068068     44.950691     44.950691     89.901383
     -3.058058     46.837049     46.837049     93.674098
     -3.048048     46.269521     46.269521     92.539042
     -3.038038     43.807936     43.807936     87.615873
     -3.028028     40.310030     40.310030     80.620060
     -3.018018     36.593240     36.593240     73.186480
     -3.008008     33.170308     33.170308     66.340617
     -2.997998     30.176610     30.176610     60.353220
     -2.987988     27.497512     27.497512     54.995025
     -2.977978     25.001328     25.001328     50.002657
     -2.967968     22.742661     22.742661     45.485321
     -2.957958     21.033133     21.033133     42.066266
     -2.947948     20.352096     20.352096     40.704192
     -2.937938     21.145475     21.145475     42.290950
     -2.927928     23.605127     23.605127     47.210254
     -2.917918     27.523915     27.523915     55.047831
     -2.907908     32.289564     32.289564     64.579127
     -2.897898     37.027402     37.027402     74.054805
     -2.887888     40.845483     40.845483     81.690966
     -2.877878     43.093936     43.093936     86.187871
     -2.867868     43.540851     43.540851     87.081702
     -2.857858     42.397155     42.397155     84.794311
     -2.847848     40.184243     40.184243     80.368485
     -2.837838     37.505123     37.505123     75.010246
     -2.827828     34.820886     34.820886     69.641772
     -2.817818     32.327809     32.327809     64.655617
     -2.807808     29.978106     29.978106     59.956212
     -2.797798     27.615070     27.615070     55.230140
     -2.787788     25.138567     25.138567     50.277135
     -2.777778     22.608375     22.608375     45.216749
     -2.767768     20.234498     20.234498     40.468995
     -2.757758     18.271603     18.271603     36.543205
     -2.747748     16.890016     16.890016     33.780033
     -2.737738     16.106113     16.106113     32.212226
     -2.727728     15.813796     15.813796     31.627592
     -2.717718     15.891113     15.891113     31.782226
     -2.707708     16.304762     16.304762     32.609524
     -2.697698     17.135150     17.135150     34.270300
     -2.687688     18.498402     18.498402     36.996804
     -2.677678     20.415286     20.415286     40.830572
     -2.667668     22.720124     22.720124     45.440247
     -2.657658     25.082708     25.082708     50.165416
     -2.647648     27.142778     27.142778     54.285556
     -2.637638     28.678497     28.678497     57.356994
     -2.627628     29.703220     29.703220     59.406441
     -2.617618     30.430202     30.430202     60.860404
     -2.607608     31.131572     31.131572     62.263145
     -2.597598     31.983098     31.983098     63.966196
     -2.587588     32.983718     32.983718     65.967436
     -2.577578     33.975933     33.975933     67.951865
     -2.567568     34.724149     34.724149     69.448298
     -2.557558     34.987208     34.987208     69.974417
     -2.547548     34.556740     34.556740     69.113481
     -2.537538     33.282783     33.282783     66.565565
     -2.527528     31.121927     31.121927     62.243855
     -2.517518     28.209139     28.209139     56.418278
     -2.507508     24.907513     24.907513     49.815027
     -2.497497     21.777657     21.777657     43.555313
     -2.487487     19.446039     19.446039     38.892077
     -2.477477     18.413218     18.413218     36.826436
     -2.467467     18.885029     18.885029     37.770059
     -2.457457     20.706161     20.706161     41.412321
     -2.447447     23.430082     23.430082     46.860164
     -2.437437     26.497195     26.497195     52.994389
     -2.427427     29.443751     29.443751     58.887503
     -2.417417     32.049060     32.049060     64.098119
     -2.407407     34.354813     34.354813     68.709627
     -2.397397     36.548094     36.548094     73.096187
     -2.387387     38.764053     38.764053     77.528105
     -2.377377     40.906332     40.906332     81.812665
     -2.367367     42.581742     42.581742     85.163483
     -2.357357     43.197324     43.197324     86.394648
     -2.347347     42.190813     42.190813     84.381625
     -2.337337     39.295255     39.295255     78.590510
     -2.327327     34.713895     34.713895     69.427790
     -2.317317     29.120691     29.120691     58.241381
     -2.307307     23.486038     23.486038     46.972076
     -2.297297     18.807789     18.807789     37.615577
     -2.287287     15.858927     15.858927     31.717854
     -2.277277     15.035318     15.035318     30.070636
     -2.267267     16.327898     16.327898     32.655795
     -2.257257     19.393103     19.393103     38.786206
     -2.247247     23.674170     23.674170     47.348339
     -2.237237     28.529472     28.529472     57.058944
     -2.227227     33.337250     33.337250     66.674501
     -2.217217     37.560422     37.560422     75.120843
     -2.207207     40.771141     40.771141     81.542282
     -2.197197     42.652213     42.652213     85.304426
     -2.187187     43.003063     43.003063     86.006125
     -2.177177     41.770175     41.770175     83.540350
     -2.167167     39.094070     39.094070     78.188139
     -2.157157     35.333834     35.333834     70.667667
     -2.147147     31.023052     31.023052     62.046104
     -2.137137     26.742495     26.742495     53.484991
     -2.127127     22.950068     22.950068     45.900137
     -2.117117     19.848111     19.848111     39.696222
     -2.107107     17.358608     17.358608     34.717216
     -2.097097     15.219314     15.219314     30.438628
     -2.087087     13.145958     13.145958     26.291916
     -2.077077     10.973347     10.973347     21.946694
     -2.067067      8.710264      8.710264     17.420528
     -2.057057      6.499549      6.499549     12.999098
     -2.047047      4.525578      4.525578      9.051157
     -2.037037      2.927203      2.927203      5.854406
     -2.027027      1.754590      1.754590      3.509180
     -2.017017      0.974775      0.974775      1.949551
     -2.007007      0.506541      0.506541      1.013083
     -1.996997      0.260243      0.260243      0.520487
     -1.986987      0.167342      0.167342      0.334684
     -1.976977      0.196494      0.196494      0.392988
     -1.966967      0.359949      0.359949      0.719899
     -1.956957      0.713804      0.713804      1.427609
     -1.946947      1.351325      1.351325      2.702650
     -1.936937      2.384824      2.384824      4.769649
     -1.926927      3.912650      3.912650      7.825300
     -1.916917      5.975007      5.975007     11.950015
     -1.906907      8.512441      8.512441     17.024883
     -1.896897     11.346663     11.346663     22.693326
     -1.886887     14.198722     14.198722     28.397443
     -1.876877     16.744613     16.744613     33.489227
     -1.866867     18.691747     18.691747     37.383495
     -1.856857     19.851440     19.851440     39.702880
     -1.846847     20.185801     20.185801     40.371603
     -1.836837     19.816348     19.816348     39.632695
     -1.826827     18.990131     18.990131     37.980262
     -1.816817     18.007967     18.007967     36.015935
     -1.806807     17.133062     17.133062     34.266123
     -1.796797     16.513831     16.513831     33.027662
     -1.786787     16.157650     16.157650     32.315300
     -1.776777     15.970247     15.970247     31.940493
     -1.766767     15.836132     15.836132     31.672265
     -1.756757     15.686878     15.686878     31.373757
     -1.746747     15.512478     15.512478     31.024955
     -1.736737     15.314862     15.314862     30.629723
     -1.726727     15.049206     15.049206     30.098413
     -1.716717     14.610212     14.610212     29.220424
     -1.706707     13.886350     13.886350     27.772700
     -1.696697     12.851126     12.851126     25.702252
     -1.686687     11.627818     11.627818     23.255635
     -1.676677     10.476240     10.476240     20.952479
     -1.666667      9.696746      9.696746     19.393492
     -1.656657      9.495784      9.495784     18.991568
     -1.646647      9.880012      9.880012     19.760025
     -1.636637     10.633040     10.633040     21.266080
     -1.626627     11.390384     11.390384     22.780768
