# EIG2DOS: Utility for SIESTA to obtain the electronic density of states
#  E. Artacho, Apr 1999, A. Garcia, Apr 2012
#  Nick R. Papior, Feb 2017
# ------------------------------------------
# Eigenvalues calculated from a non-polarized calculation
# Eigenvalues read from siesta.EIG
# Kpoint weights read from siesta.KP
# Using smearing parameter:   0.0500
# Using 1000 points in the energy range
# Selected bands: 1 to: 2981
# Emin, Emax in file for selected band(s):    -27.0443273    218.3198050
# Nbands, Nspin, Nk   =   2981     1     1
# E_F                 =    -4.2946 eV --> (shifted to ZERO)
# Broadening          =     0.0500 eV
#
#        E            N(up)  (=)   N(down)         Ntot
     -5.000000     46.059866     46.059866     92.119732
     -4.989990     48.088923     48.088923     96.177847
     -4.979980     48.775610     48.775610     97.551219
     -4.969970     48.196177     48.196177     96.392354
     -4.959960     46.523719     46.523719     93.047437
     -4.949950     43.986836     43.986836     87.973672
     -4.939940     40.856530     40.856530     81.713061
     -4.929930     37.461436     37.461436     74.922872
     -4.919920     34.215775     34.215775     68.431549
     -4.909910     31.634404     31.634404     63.268809
     -4.899900     30.303967     30.303967     60.607934
     -4.889890     30.781970     30.781970     61.563941
     -4.879880     33.418487     33.418487     66.836973
     -4.869870     38.143892     38.143892     76.287783
     -4.859860     44.320795     44.320795     88.641590
     -4.849850     50.774378     50.774378    101.548756
     -4.839840     56.056656     56.056656    112.113312
     -4.829830     58.880057     58.880057    117.760114
     -4.819820     58.543821     58.543821    117.087642
     -4.809810     55.154830     55.154830    110.309659
     -4.799800     49.540528     49.540528     99.081056
     -4.789790     42.910083     42.910083     85.820166
     -4.779780     36.438876     36.438876     72.877751
     -4.769770     30.959739     30.959739     61.919477
     -4.759760     26.852701     26.852701     53.705401
     -4.749750     24.108730     24.108730     48.217460
     -4.739740     22.476348     22.476348     44.952695
     -4.729730     21.604011     21.604011     43.208021
     -4.719720     21.135182     21.135182     42.270363
     -4.709710     20.755192     20.755192     41.510383
     -4.699700     20.210018     20.210018     40.420035
     -4.689690     19.320256     19.320256     38.640512
     -4.679680     18.006706     18.006706     36.013412
     -4.669670     16.330033     16.330033     32.660067
     -4.659660     14.529352     14.529352     29.058703
     -4.649650     13.032261     13.032261     26.064522
     -4.639640     12.410508     12.410508     24.821015
     -4.629630     13.270885     13.270885     26.541770
     -4.619620     16.092914     16.092914     32.185828
     -4.609610     21.047175     21.047175     42.094350
     -4.599600     27.848646     27.848646     55.697291
     -4.589590     35.711641     35.711641     71.423283
     -4.579580     43.461630     43.461630     86.923261
     -4.569570     49.811244     49.811244     99.622489
     -4.559560     53.732372     53.732372    107.464744
     -4.549550     54.790905     54.790905    109.581811
     -4.539540     53.300920     53.300920    106.601839
     -4.529530     50.219223     50.219223    100.438447
     -4.519520     46.812492     46.812492     93.624983
     -4.509510     44.229501     44.229501     88.459003
     -4.499499     43.147914     43.147914     86.295829
     -4.489489     43.622737     43.622737     87.245475
     -4.479479     45.168771     45.168771     90.337542
     -4.469469     47.011794     47.011794     94.023589
     -4.459459     48.387148     48.387148     96.774295
     -4.449449     48.767958     48.767958     97.535915
     -4.439439     47.957276     47.957276     95.914552
     -4.429429     46.048670     46.048670     92.097340
     -4.419419     43.314530     43.314530     86.629060
     -4.409409     40.096762     40.096762     80.193524
     -4.399399     36.747107     36.747107     73.494213
     -4.389389     33.614061     33.614061     67.228123
     -4.379379     31.035262     31.035262     62.070525
     -4.369369     29.295593     29.295593     58.591185
     -4.359359     28.550530     28.550530     57.101059
     -4.349349     28.758877     28.758877     57.517753
     -4.339339     29.680703     29.680703     59.361407
     -4.329329     30.962567     30.962567     61.925133
     -4.319319     32.277273     32.277273     64.554545
     -4.309309     33.450127     33.450127     66.900254
     -4.299299     34.511211     34.511211     69.022422
     -4.289289     35.653430     35.653430     71.306860
     -4.279279     37.118538     37.118538     74.237075
     -4.269269     39.055976     39.055976     78.111952
     -4.259259     41.402726     41.402726     82.805452
     -4.249249     43.828542     43.828542     87.657084
     -4.239239     45.782131     45.782131     91.564262
     -4.229229     46.647779     46.647779     93.295558
     -4.219219     45.972039     45.972039     91.944078
     -4.209209     43.667432     43.667432     87.334864
     -4.199199     40.086816     40.086816     80.173631
     -4.189189     35.914751     35.914751     71.829503
     -4.179179     31.918985     31.918985     63.837969
     -4.169169     28.684169     28.684169     57.368339
     -4.159159     26.457092     26.457092     52.914184
     -4.149149     25.164758     25.164758     50.329516
     -4.139139     24.571359     24.571359     49.142718
     -4.129129     24.474738     24.474738     48.949475
     -4.119119     24.835564     24.835564     49.671129
     -4.109109     25.774762     25.774762     51.549525
     -4.099099     27.441738     27.441738     54.883476
     -4.089089     29.822205     29.822205     59.644410
     -4.079079     32.594858     32.594858     65.189715
     -4.069069     35.136402     35.136402     70.272805
     -4.059059     36.705643     36.705643     73.411287
     -4.049049     36.736206     36.736206     73.472412
     -4.039039     35.093433     35.093433     70.186865
     -4.029029     32.158233     32.158233     64.316465
     -4.019019     28.693207     28.693207     57.386414
     -4.009009     25.567096     25.567096     51.134192
     -3.998999     23.483290     23.483290     46.966581
     -3.988989     22.834414     22.834414     45.668828
     -3.978979     23.712434     23.712434     47.424869
     -3.968969     26.011810     26.011810     52.023621
     -3.958959     29.532325     29.532325     59.064649
     -3.948949     34.027039     34.027039     68.054079
     -3.938939     39.206527     39.206527     78.413055
     -3.928929     44.747332     44.747332     89.494665
     -3.918919     50.335805     50.335805    100.671610
     -3.908909     55.729765     55.729765    111.459531
     -3.898899     60.785618     60.785618    121.571235
     -3.888889     65.409360     65.409360    130.818720
     -3.878879     69.441271     69.441271    138.882542
     -3.868869     72.540408     72.540408    145.080817
     -3.858859     74.156451     74.156451    148.312902
     -3.848849     73.643458     73.643458    147.286916
     -3.838839     70.495707     70.495707    140.991415
     -3.828829     64.609725     64.609725    129.219450
     -3.818819     56.444815     56.444815    112.889629
     -3.808809     46.990753     46.990753     93.981505
     -3.798799     37.539181     37.539181     75.078362
     -3.788789     29.345265     29.345265     58.690530
     -3.778779     23.308858     23.308858     46.617716
     -3.768769     19.782847     19.782847     39.565694
     -3.758759     18.553279     18.553279     37.106559
     -3.748749     18.971168     18.971168     37.942335
     -3.738739     20.177416     20.177416     40.354832
     -3.728729     21.353462     21.353462     42.706924
     -3.718719     21.938509     21.938509     43.877017
     -3.708709     21.767523     21.767523     43.535045
     -3.698699     21.098880     21.098880     42.197760
     -3.688689     20.520039     20.520039     41.040079
     -3.678679     20.747306     20.747306     41.494611
     -3.668669     22.369390     22.369390     44.738779
     -3.658659     25.613464     25.613464     51.226929
     -3.648649     30.219721     30.219721     60.439442
     -3.638639     35.481784     35.481784     70.963568
     -3.628629     40.447578     40.447578     80.895156
     -3.618619     44.204469     44.204469     88.408937
     -3.608609     46.133843     46.133843     92.267685
     -3.598599     46.040418     46.040418     92.080836
     -3.588589     44.129405     44.129405     88.258810
     -3.578579     40.875591     40.875591     81.751182
     -3.568569     36.858912     36.858912     73.717824
     -3.558559     32.623356     32.623356     65.246713
     -3.548549     28.579779     28.579779     57.159558
     -3.538539     24.952865     24.952865     49.905729
     -3.528529     21.774854     21.774854     43.549708
     -3.518519     18.932867     18.932867     37.865735
     -3.508509     16.262986     16.262986     32.525971
     -3.498498     13.658066     13.658066     27.316132
     -3.488488     11.142043     11.142043     22.284086
     -3.478478      8.877725      8.877725     17.755449
     -3.468468      7.109184      7.109184     14.218369
     -3.458458      6.069155      6.069155     12.138310
     -3.448448      5.889534      5.889534     11.779069
     -3.438438      6.542884      6.542884     13.085768
     -3.428428      7.829453      7.829453     15.658905
     -3.418418      9.416062      9.416062     18.832124
     -3.408408     10.924960     10.924960     21.849920
     -3.398398     12.054447     12.054447     24.108895
     -3.388388     12.692135     12.692135     25.384270
     -3.378378     12.972366     12.972366     25.944731
     -3.368368     13.245940     13.245940     26.491880
     -3.358358     13.968824     13.968824     27.937648
     -3.348348     15.553564     15.553564     31.107128
     -3.338338     18.237972     18.237972     36.475943
     -3.328328     22.005556     22.005556     44.011111
     -3.318318     26.561400     26.561400     53.122800
     -3.308308     31.353022     31.353022     62.706043
     -3.298298     35.636130     35.636130     71.272260
     -3.288288     38.599387     38.599387     77.198773
     -3.278278     39.550383     39.550383     79.100766
     -3.268268     38.121815     38.121815     76.243631
     -3.258258     34.414489     34.414489     68.828979
     -3.248248     28.996871     28.996871     57.993742
     -3.238238     22.742463     22.742463     45.484926
     -3.228228     16.570019     16.570019     33.140039
     -3.218218     11.199677     11.199677     22.399354
     -3.208208      7.019579      7.019579     14.039157
     -3.198198      4.091152      4.091152      8.182304
     -3.188188      2.254922      2.254922      4.509844
     -3.178178      1.269637      1.269637      2.539273
     -3.168168      0.929250      0.929250      1.858500
     -3.158158      1.132691      1.132691      2.265381
     -3.148148      1.905799      1.905799      3.811598
     -3.138138      3.383173      3.383173      6.766345
     -3.128128      5.755572      5.755572     11.511145
     -3.118118      9.188047      9.188047     18.376094
     -3.108108     13.722678     13.722678     27.445356
     -3.098098     19.194812     19.194812     38.389624
     -3.088088     25.200667     25.200667     50.401334
     -3.078078     31.144143     31.144143     62.288285
     -3.068068     36.359175     36.359175     72.718350
     -3.058058     40.265569     40.265569     80.531137
     -3.048048     42.495915     42.495915     84.991830
     -3.038038     42.946396     42.946396     85.892793
     -3.028028     41.748169     41.748169     83.496337
     -3.018018     39.198670     39.198670     78.397339
     -3.008008     35.702464     35.702464     71.404929
     -2.997998     31.743220     31.743220     63.486440
     -2.987988     27.867842     27.867842     55.735685
     -2.977978     24.646357     24.646357     49.292714
     -2.967968     22.591046     22.591046     45.182093
     -2.957958     22.056403     22.056403     44.112807
     -2.947948     23.163387     23.163387     46.326773
     -2.937938     25.779104     25.779104     51.558209
     -2.927928     29.549817     29.549817     59.099635
     -2.917918     33.961488     33.961488     67.922976
     -2.907908     38.406574     38.406574     76.813148
     -2.897898     42.258159     42.258159     84.516318
     -2.887888     44.964742     44.964742     89.929483
     -2.877878     46.163447     46.163447     92.326894
     -2.867868     45.776846     45.776846     91.553691
     -2.857858     44.039949     44.039949     88.079897
     -2.847848     41.422802     41.422802     82.845605
     -2.837838     38.465065     38.465065     76.930129
     -2.827828     35.590456     35.590456     71.180911
     -2.817818     32.986309     32.986309     65.972618
     -2.807808     30.602981     30.602981     61.205962
     -2.797798     28.265743     28.265743     56.531485
     -2.787788     25.833115     25.833115     51.666229
     -2.777778     23.313644     23.313644     46.627289
     -2.767768     20.880125     20.880125     41.760251
     -2.757758     18.781100     18.781100     37.562200
     -2.747748     17.209405     17.209405     34.418811
     -2.737738     16.211405     16.211405     32.422810
     -2.727728     15.693291     15.693291     31.386583
     -2.717718     15.517800     15.517800     31.035600
     -2.707708     15.624612     15.624612     31.249224
     -2.697698     16.089742     16.089742     32.179484
     -2.687688     17.077252     17.077252     34.154504
     -2.677678     18.708302     18.708302     37.416603
     -2.667668     20.931528     20.931528     41.863055
     -2.657658     23.484466     23.484466     46.968932
     -2.647648     25.980987     25.980987     51.961975
     -2.637638     28.078289     28.078289     56.156577
     -2.627628     29.623345     29.623345     59.246690
     -2.617618     30.691217     30.691217     61.382434
     -2.607608     31.499054     31.499054     62.998107
     -2.597598     32.259179     32.259179     64.518359
     -2.587588     33.064822     33.064822     66.129643
     -2.577578     33.864041     33.864041     67.728082
     -2.567568     34.507102     34.507102     69.014203
     -2.557558     34.809430     34.809430     69.618861
     -2.547548     34.587649     34.587649     69.175298
     -2.537538     33.676324     33.676324     67.352648
     -2.527528     31.964309     31.964309     63.928619
     -2.517518     29.469640     29.469640     58.939281
     -2.507508     26.420057     26.420057     52.840114
     -2.497497     23.273001     23.273001     46.546003
     -2.487487     20.628820     20.628820     41.257640
     -2.477477     19.052753     19.052753     38.105505
     -2.467467     18.880978     18.880978     37.761955
     -2.457457     20.103504     20.103504     40.207008
     -2.447447     22.382680     22.382680     44.765359
     -2.437437     25.201432     25.201432     50.402864
     -2.427427     28.073617     28.073617     56.147234
     -2.417417     30.718953     30.718953     61.437906
     -2.407407     33.120683     33.120683     66.241367
     -2.397397     35.439293     35.439293     70.878587
     -2.387387     37.825651     37.825651     75.651302
     -2.377377     40.228720     40.228720     80.457439
     -2.367367     42.300601     42.300601     84.601202
     -2.357357     43.459422     43.459422     86.918844
     -2.347347     43.096172     43.096172     86.192344
     -2.337337     40.839477     40.839477     81.678955
     -2.327327     36.758852     36.758852     73.517704
     -2.317317     31.411999     31.411999     62.823997
     -2.307307     25.714141     25.714141     51.428282
     -2.297297     20.687736     20.687736     41.375473
     -2.287287     17.195525     17.195525     34.391050
     -2.277277     15.749960     15.749960     31.499920
     -2.267267     16.443948     16.443948     32.887897
     -2.257257     18.995672     18.995672     37.991344
     -2.247247     22.868428     22.868428     45.736856
     -2.237237     27.417502     27.417502     54.835004
     -2.227227     32.020438     32.020438     64.040876
     -2.217217     36.158871     36.158871     72.317742
     -2.207207     39.440608     39.440608     78.881215
     -2.197197     41.578712     41.578712     83.157423
     -2.187187     42.367177     42.367177     84.734354
     -2.177177     41.691915     41.691915     83.383831
     -2.167167     39.584402     39.584402     79.168805
     -2.157157     36.280711     36.280711     72.561422
     -2.147147     32.224993     32.224993     64.449986
     -2.137137     27.978481     27.978481     55.956962
     -2.127127     24.054453     24.054453     48.108906
     -2.117117     20.755831     20.755831     41.511661
     -2.107107     18.101978     18.101978     36.203955
     -2.097097     15.883721     15.883721     31.767443
     -2.087087     13.811972     13.811972     27.623944
     -2.077077     11.675576     11.675576     23.351152
     -2.067067      9.429047      9.429047     18.858093
     -2.057057      7.181237      7.181237     14.362475
     -2.047047      5.113754      5.113754     10.227507
     -2.037037      3.386754      3.386754      6.773508
     -2.027027      2.079815      2.079815      4.159630
     -2.017017      1.183375      1.183375      2.366750
     -2.007007      0.627141      0.627141      1.254282
     -1.996997      0.320688      0.320688      0.641376
     -1.986987      0.187284      0.187284      0.374567
     -1.976977      0.184216      0.184216      0.368432
     -1.966967      0.311878      0.311878      0.623756
     -1.956957      0.615654      0.615654      1.231309
     -1.946947      1.181127      1.181127      2.362254
     -1.936937      2.118827      2.118827      4.237654
     -1.926927      3.534390      3.534390      7.068779
     -1.916917      5.485751      5.485751     10.971502
     -1.906907      7.938951      7.938951     15.877902
     -1.896897     10.741687     10.741687     21.483375
     -1.886887     13.631917     13.631917     27.263833
     -1.876877     16.285885     16.285885     32.571770
     -1.866867     18.392673     18.392673     36.785346
     -1.856857     19.731169     19.731169     39.462338
     -1.846847     20.225541     20.225541     40.451081
     -1.836837     19.963065     19.963065     39.926129
     -1.826827     19.166949     19.166949     38.333897
     -1.816817     18.125938     18.125938     36.251877
     -1.806807     17.096427     17.096427     34.192854
     -1.796797     16.210626     16.210626     32.421251
     -1.786787     15.433463     15.433463     30.866926
     -1.776777     14.596254     14.596254     29.192508
     -1.766767     13.497439     13.497439     26.994879
     -1.756757     12.022125     12.022125     24.044249
     -1.746747     10.220718     10.220718     20.441436
     -1.736737      8.311920      8.311920     16.623841
     -1.726727      6.618329      6.618329     13.236657
     -1.716717      5.473483      5.473483     10.946965
     -1.706707      5.140112      5.140112     10.280224
     -1.696697      5.758164      5.758164     11.516327
     -1.686687      7.319812      7.319812     14.639623
     -1.676677      9.662789      9.662789     19.325578
     -1.666667     12.481247     12.481247     24.962493
     -1.656657     15.361311     15.361311     30.722622
     -1.646647     17.845845     17.845845     35.691690
     -1.636637     19.520787     19.520787     39.041574
     -1.626627     20.103588     20.103588     40.207177
