# EIG2DOS: Utility for SIESTA to obtain the electronic density of states
#  E. Artacho, Apr 1999, A. Garcia, Apr 2012
#  Nick R. Papior, Feb 2017
# ------------------------------------------
# Eigenvalues calculated from a non-polarized calculation
# Eigenvalues read from siesta.EIG
# Kpoint weights read from siesta.KP
# Using smearing parameter:   0.0500
# Using 1000 points in the energy range
# Selected bands: 1 to: 2981
# Emin, Emax in file for selected band(s):    -27.0494918    218.3175570
# Nbands, Nspin, Nk   =   2981     1     1
# E_F                 =    -4.2910 eV --> (shifted to ZERO)
# Broadening          =     0.0500 eV
#
#        E            N(up)  (=)   N(down)         Ntot
     -5.000000     45.680899     45.680899     91.361799
     -4.989990     49.086670     49.086670     98.173340
     -4.979980     50.923221     50.923221    101.846441
     -4.969970     51.054779     51.054779    102.109558
     -4.959960     49.588047     49.588047     99.176095
     -4.949950     46.826111     46.826111     93.652222
     -4.939940     43.198263     43.198263     86.396525
     -4.929930     39.202864     39.202864     78.405729
     -4.919920     35.382193     35.382193     70.764387
     -4.909910     32.318484     32.318484     64.636969
     -4.899900     30.614651     30.614651     61.229303
     -4.889890     30.816131     30.816131     61.632262
     -4.879880     33.254368     33.254368     66.508736
     -4.869870     37.847648     37.847648     75.695297
     -4.859860     43.955840     43.955840     87.911680
     -4.849850     50.405606     50.405606    100.811211
     -4.839840     55.746197     55.746197    111.492393
     -4.829830     58.676604     58.676604    117.353209
     -4.819820     58.471746     58.471746    116.943491
     -4.809810     55.209862     55.209862    110.419724
     -4.799800     49.695164     49.695164     99.390328
     -4.789790     43.126190     43.126190     86.252380
     -4.779780     36.681153     36.681153     73.362306
     -4.769770     31.204156     31.204156     62.408313
     -4.759760     27.087940     27.087940     54.175880
     -4.749750     24.332640     24.332640     48.665280
     -4.739740     22.690880     22.690880     45.381760
     -4.729730     21.810976     21.810976     43.621952
     -4.719720     21.333398     21.333398     42.666795
     -4.709710     20.938891     20.938891     41.877782
     -4.699700     20.368680     20.368680     40.737360
     -4.689690     19.440145     19.440145     38.880290
     -4.679680     18.073687     18.073687     36.147374
     -4.669670     16.332316     16.332316     32.664633
     -4.659660     14.458824     14.458824     28.917648
     -4.649650     12.884500     12.884500     25.768999
     -4.639640     12.185346     12.185346     24.370693
     -4.629630     12.975774     12.975774     25.951548
     -4.619620     15.749155     15.749155     31.498310
     -4.609610     20.695444     20.695444     41.390887
     -4.599600     27.547849     27.547849     55.095698
     -4.589590     35.526935     35.526935     71.053870
     -4.579580     43.443562     43.443562     86.887123
     -4.569570     49.974995     49.974995     99.949990
     -4.559560     54.048560     54.048560    108.097121
     -4.549550     55.194451     55.194451    110.388903
     -4.539540     53.714472     53.714472    107.428943
     -4.529530     50.579169     50.579169    101.158338
     -4.519520     47.084387     47.084387     94.168774
     -4.509510     44.406424     44.406424     88.812847
     -4.499499     43.234949     43.234949     86.469897
     -4.489489     43.617514     43.617514     87.235027
     -4.479479     45.048595     45.048595     90.097189
     -4.469469     46.733765     46.733765     93.467530
     -4.459459     47.902037     47.902037     95.804073
     -4.449449     48.043947     48.043947     96.087894
     -4.439439     47.006268     47.006268     94.012536
     -4.429429     44.945344     44.945344     89.890689
     -4.419419     42.197610     42.197610     84.395221
     -4.409409     39.145584     39.145584     78.291169
     -4.399399     36.135948     36.135948     72.271895
     -4.389389     33.458821     33.458821     66.917643
     -4.379379     31.354633     31.354633     62.709266
     -4.369369     30.005019     30.005019     60.010038
     -4.359359     29.492308     29.492308     58.984615
     -4.349349     29.754117     29.754117     59.508235
     -4.339339     30.579726     30.579726     61.159452
     -4.329329     31.674646     31.674646     63.349291
     -4.319319     32.774204     32.774204     65.548408
     -4.309309     33.751124     33.751124     67.502248
     -4.299299     34.661829     34.661829     69.323657
     -4.289289     35.707997     35.707997     71.415995
     -4.279279     37.128822     37.128822     74.257644
     -4.269269     39.063977     39.063977     78.127954
     -4.259259     41.435021     41.435021     82.870042
     -4.249249     43.892063     43.892063     87.784127
     -4.239239     45.863514     45.863514     91.727029
     -4.229229     46.718307     46.718307     93.436614
     -4.219219     45.997790     45.997790     91.995581
     -4.209209     43.621428     43.621428     87.242856
     -4.199199     39.958775     39.958775     79.917549
     -4.189189     35.715140     35.715140     71.430280
     -4.179179     31.676542     31.676542     63.353083
     -4.169169     28.438502     28.438502     56.877004
     -4.159159     26.249245     26.249245     52.498491
     -4.149149     25.028615     25.028615     50.057229
     -4.139139     24.527706     24.527706     49.055413
     -4.129129     24.528596     24.528596     49.057192
     -4.119119     24.976463     24.976463     49.952926
     -4.109109     25.979377     25.979377     51.958754
     -4.099099     27.678350     27.678350     55.356701
     -4.089089     30.056320     30.056320     60.112640
     -4.079079     32.794906     32.794906     65.589811
     -4.069069     35.278161     35.278161     70.556322
     -4.059059     36.774395     36.774395     73.548790
     -4.049049     36.726756     36.726756     73.453512
     -4.039039     35.009212     35.009212     70.018425
     -4.029029     32.010903     32.010903     64.021806
     -4.019019     28.503099     28.503099     57.006198
     -4.009009     25.363178     25.363178     50.726356
     -3.998999     23.300539     23.300539     46.601078
     -3.988989     22.707488     22.707488     45.414975
     -3.978979     23.666986     23.666986     47.333971
     -3.968969     26.056954     26.056954     52.113908
     -3.958959     29.657878     29.657878     59.315755
     -3.948949     34.206944     34.206944     68.413889
     -3.938939     39.406845     39.406845     78.813690
     -3.928929     44.935387     44.935387     89.870775
     -3.918919     50.487369     50.487369    100.974738
     -3.908909     55.832743     55.832743    111.665486
     -3.898899     60.840173     60.840173    121.680346
     -3.888889     65.425138     65.425138    130.850276
     -3.878879     69.432688     69.432688    138.865376
     -3.868869     72.521447     72.521447    145.042893
     -3.858859     74.136780     74.136780    148.273561
     -3.848849     73.627308     73.627308    147.254615
     -3.838839     70.483521     70.483521    140.967041
     -3.828829     64.601027     64.601027    129.202054
     -3.818819     56.440195     56.440195    112.880390
     -3.808809     46.991861     46.991861     93.983721
     -3.798799     37.547275     37.547275     75.094551
     -3.788789     29.359831     29.359831     58.719661
     -3.778779     23.327418     23.327418     46.654836
     -3.768769     19.801985     19.801985     39.603970
     -3.758759     18.570014     18.570014     37.140028
     -3.748749     18.983789     18.983789     37.967578
     -3.738739     20.185473     20.185473     40.370947
     -3.728729     21.357157     21.357157     42.714314
     -3.718719     21.938008     21.938008     43.876016
     -3.708709     21.762573     21.762573     43.525146
     -3.698699     21.088895     21.088895     42.177790
     -3.688689     20.504580     20.504580     41.009160
     -3.678679     20.726695     20.726695     41.453391
     -3.668669     22.345075     22.345075     44.690149
     -3.658659     25.587739     25.587739     51.175478
     -3.648649     30.194730     30.194730     60.389460
     -3.638639     35.458215     35.458215     70.916430
     -3.628629     40.423909     40.423909     80.847818
     -3.618619     44.177598     44.177598     88.355197
     -3.608609     46.101204     46.101204     92.202408
     -3.598599     46.002586     46.002586     92.005172
     -3.588589     44.091562     44.091562     88.183124
     -3.578579     40.846581     40.846581     81.693163
     -3.568569     36.847997     36.847997     73.695994
     -3.558559     32.636242     32.636242     65.272483
     -3.548549     28.616030     28.616030     57.232060
     -3.538539     25.006021     25.006021     50.012043
     -3.528529     21.834978     21.834978     43.669956
     -3.518519     18.989989     18.989989     37.979978
     -3.508509     16.309702     16.309702     32.619405
     -3.498498     13.690350     13.690350     27.380699
     -3.488488     11.158429     11.158429     22.316858
     -3.478478      8.877833      8.877833     17.755666
     -3.468468      7.092657      7.092657     14.185314
     -3.458458      6.035694      6.035694     12.071388
     -3.448448      5.840092      5.840092     11.680183
     -3.438438      6.481386      6.481386     12.962773
     -3.428428      7.763995      7.763995     15.527991
     -3.418418      9.358530      9.358530     18.717061
     -3.408408     10.888648     10.888648     21.777297
     -3.398398     12.050269     12.050269     24.100538
     -3.388388     12.724846     12.724846     25.449692
     -3.378378     13.038326     13.038326     26.076653
     -3.368368     13.333248     13.333248     26.666496
     -3.358358     14.059680     14.059680     28.119361
     -3.348348     15.628138     15.628138     31.256276
     -3.338338     18.278959     18.278959     36.557918
     -3.328328     22.002659     22.002659     44.005319
     -3.318318     26.514730     26.514730     53.029460
     -3.308308     31.274069     31.274069     62.548139
     -3.298298     35.545231     35.545231     71.090461
     -3.288288     38.519848     38.519848     77.039697
     -3.278278     39.501227     39.501227     79.002455
     -3.268268     38.112112     38.112112     76.224224
     -3.258258     34.441689     34.441689     68.883378
     -3.248248     29.049527     29.049527     58.099053
     -3.238238     22.805601     22.805601     45.611202
     -3.228228     16.630458     16.630458     33.260915
     -3.218218     11.249240     11.249240     22.498480
     -3.208208      7.055690      7.055690     14.111380
     -3.198198      4.115731      4.115731      8.231461
     -3.188188      2.273162      2.273162      4.546323
     -3.178178      1.290274      1.290274      2.580548
     -3.168168      0.967713      0.967713      1.935427
     -3.158158      1.218359      1.218359      2.436717
     -3.148148      2.094092      2.094092      4.188184
     -3.138138      3.771367      3.771367      7.542735
     -3.128128      6.497134      6.497134     12.994269
     -3.118118     10.494349     10.494349     20.988698
     -3.108108     15.836424     15.836424     31.672848
     -3.098098     22.322421     22.322421     44.644843
     -3.088088     29.406841     29.406841     58.813682
     -3.078078     36.239468     36.239468     72.478935
     -3.068068     41.837629     41.837629     83.675259
     -3.058058     45.351500     45.351500     90.703000
     -3.048048     46.324095     46.324095     92.648190
     -3.038038     44.832235     44.832235     89.664470
     -3.028028     41.443063     41.443063     82.886126
     -3.018018     37.010137     37.010137     74.020275
     -3.008008     32.408772     32.408772     64.817544
     -2.997998     28.325330     28.325330     56.650661
     -2.987988     25.167142     25.167142     50.334285
     -2.977978     23.089399     23.089399     46.178798
     -2.967968     22.088823     22.088823     44.177646
     -2.957958     22.106386     22.106386     44.212773
     -2.947948     23.096586     23.096586     46.193172
     -2.937938     25.039124     25.039124     50.078248
     -2.927928     27.888297     27.888297     55.776594
     -2.917918     31.483084     31.483084     62.966168
     -2.907908     35.471034     35.471034     70.942067
     -2.897898     39.308259     39.308259     78.616518
     -2.887888     42.367132     42.367132     84.734264
     -2.877878     44.122049     44.122049     88.244098
     -2.867868     44.329443     44.329443     88.658887
     -2.857858     43.109267     43.109267     86.218534
     -2.847848     40.881182     40.881182     81.762364
     -2.837838     38.183466     38.183466     76.366931
     -2.827828     35.462676     35.462676     70.925352
     -2.817818     32.934142     32.934142     65.868285
     -2.807808     30.572699     30.572699     61.145398
     -2.797798     28.223463     28.223463     56.446925
     -2.787788     25.761650     25.761650     51.523300
     -2.777778     23.210043     23.210043     46.420087
     -2.767768     20.752368     20.752368     41.504735
     -2.757758     18.643405     18.643405     37.286811
     -2.747748     17.076887     17.076887     34.153775
     -2.737738     16.095416     16.095416     32.190831
     -2.727728     15.598584     15.598584     31.197168
     -2.717718     15.442031     15.442031     30.884062
     -2.707708     15.560103     15.560103     31.120206
     -2.697698     16.026980     16.026980     32.053959
     -2.687688     17.009157     17.009157     34.018314
     -2.677678     18.633875     18.633875     37.267750
     -2.667668     20.857360     20.857360     41.714721
     -2.657658     23.423147     23.423147     46.846295
     -2.647648     25.946720     25.946720     51.893440
     -2.637638     28.081441     28.081441     56.162882
     -2.627628     29.666353     29.666353     59.332706
     -2.617618     30.767667     30.767667     61.535334
     -2.607608     31.596142     31.596142     63.192284
     -2.597598     32.362097     32.362097     64.724194
     -2.587588     33.160896     33.160896     66.321792
     -2.577578     33.945022     33.945022     67.890043
     -2.567568     34.569249     34.569249     69.138498
     -2.557558     34.852183     34.852183     69.704366
     -2.547548     34.611990     34.611990     69.223980
     -2.537538     33.683611     33.683611     67.367221
     -2.527528     31.955693     31.955693     63.911386
     -2.517518     29.445827     29.445827     58.891654
     -2.507508     26.381229     26.381229     52.762459
     -2.497497     23.219055     23.219055     46.438110
     -2.487487     20.560273     20.560273     41.120546
     -2.477477     18.972454     18.972454     37.944908
     -2.467467     18.796120     18.796120     37.592240
     -2.457457     20.026842     20.026842     40.053683
     -2.447447     22.331774     22.331774     44.663549
     -2.437437     25.195442     25.195442     50.390885
     -2.427427     28.128321     28.128321     56.256642
     -2.417417     30.841664     30.841664     61.683328
     -2.407407     33.306919     33.306919     66.613838
     -2.397397     35.672325     35.672325     71.344649
     -2.387387     38.078951     38.078951     76.157903
     -2.377377     40.470510     40.470510     80.941020
     -2.367367     42.499487     42.499487     84.998975
     -2.357357     43.590256     43.590256     87.180512
     -2.347347     43.145255     43.145255     86.290509
     -2.337337     40.807933     40.807933     81.615865
     -2.327327     36.662851     36.662851     73.325703
     -2.317317     31.279106     31.279106     62.558211
     -2.307307     25.576357     25.576357     51.152715
     -2.297297     20.573262     20.573262     41.146524
     -2.287287     17.121958     17.121958     34.243917
     -2.277277     15.721253     15.721253     31.442506
     -2.267267     16.452083     16.452083     32.904167
     -2.257257     19.026254     19.026254     38.052508
     -2.247247     22.907792     22.907792     45.815584
     -2.237237     27.458155     27.458155     54.916311
     -2.227227     32.062303     32.062303     64.124606
     -2.217217     36.205845     36.205845     72.411691
     -2.207207     39.494586     39.494586     78.989172
     -2.197197     41.634738     41.634738     83.269476
     -2.187187     42.412802     42.412802     84.825605
     -2.177177     41.711350     41.711350     83.422700
     -2.167167     39.565221     39.565221     79.130441
     -2.157157     36.219491     36.219491     72.438982
     -2.147147     32.129025     32.129025     64.258050
     -2.137137     27.862946     27.862946     55.725892
     -2.127127     23.936815     23.936815     47.873630
     -2.117117     20.650280     20.650280     41.300560
     -2.107107     18.016252     18.016252     36.032504
     -2.097097     15.819033     15.819033     31.638066
     -2.087087     13.765179     13.765179     27.530357
     -2.077077     11.641985     11.641985     23.283970
     -2.067067      9.404496      9.404496     18.808991
     -2.057057      7.162937      7.162937     14.325874
     -2.047047      5.100144      5.100144     10.200287
     -2.037037      3.376951      3.376951      6.753903
     -2.027027      2.073134      2.073134      4.146267
     -2.017017      1.179105      1.179105      2.358210
     -2.007007      0.624523      0.624523      1.249047
     -1.996997      0.318954      0.318954      0.637908
     -1.986987      0.185632      0.185632      0.371264
     -1.976977      0.181707      0.181707      0.363414
     -1.966967      0.307288      0.307288      0.614576
     -1.956957      0.607416      0.607416      1.214832
     -1.946947      1.167523      1.167523      2.335047
     -1.936937      2.098583      2.098583      4.197167
     -1.926927      3.507645      3.507645      7.015290
     -1.916917      5.455090      5.455090     10.910181
     -1.906907      7.909865      7.909865     15.819729
     -1.896897     10.721771     10.721771     21.443542
     -1.886887     13.628555     13.628555     27.257110
     -1.876877     16.302991     16.302991     32.605982
     -1.866867     18.427876     18.427876     36.855753
     -1.856857     19.775021     19.775021     39.550041
     -1.846847     20.263596     20.263596     40.527193
     -1.836837     19.980357     19.980357     39.960715
     -1.826827     19.153200     19.153200     38.306400
     -1.816817     18.079455     18.079455     36.158911
     -1.806807     17.025184     17.025184     34.050367
     -1.796797     16.130132     16.130132     32.260265
     -1.786787     15.362181     15.362181     30.724362
     -1.776777     14.550144     14.550144     29.100289
     -1.766767     13.485552     13.485552     26.971104
     -1.756757     12.044770     12.044770     24.089539
     -1.746747     10.270763     10.270763     20.541526
     -1.736737      8.378463      8.378463     16.756926
     -1.726727      6.691016      6.691016     13.382032
     -1.716717      5.545633      5.545633     11.091266
     -1.706707      5.209541      5.209541     10.419083
     -1.696697      5.825801      5.825801     11.651603
     -1.686687      7.387135      7.387135     14.774269
     -1.676677      9.729451      9.729451     19.458902
     -1.666667     12.543962     12.543962     25.087923
     -1.656657     15.414353     15.414353     30.828706
     -1.646647     17.882791     17.882791     35.765581
     -1.636637     19.536683     19.536683     39.073367
     -1.626627     20.096697     20.096697     40.193395
