# EIG2DOS: Utility for SIESTA to obtain the electronic density of states
#  E. Artacho, Apr 1999, A. Garcia, Apr 2012
#  Nick R. Papior, Feb 2017
# ------------------------------------------
# Eigenvalues calculated from a non-polarized calculation
# Eigenvalues read from siesta.EIG
# Kpoint weights read from siesta.KP
# Using smearing parameter:   0.0500
# Using 1000 points in the energy range
# Selected bands: 1 to: 2981
# Emin, Emax in file for selected band(s):    -27.0538244    218.3375280
# Nbands, Nspin, Nk   =   2981     1     1
# E_F                 =    -4.2682 eV --> (shifted to ZERO)
# Broadening          =     0.0500 eV
#
#        E            N(up)  (=)   N(down)         Ntot
     -5.000000     37.240611     37.240611     74.481222
     -4.989990     39.749613     39.749613     79.499225
     -4.979980     42.023407     42.023407     84.046814
     -4.969970     43.556626     43.556626     87.113252
     -4.959960     43.941173     43.941173     87.882346
     -4.949950     42.998846     42.998846     85.997692
     -4.939940     40.839354     40.839354     81.678707
     -4.929930     37.843525     37.843525     75.687050
     -4.919920     34.599108     34.599108     69.198216
     -4.909910     31.817313     31.817313     63.634625
     -4.899900     30.236089     30.236089     60.472179
     -4.889890     30.493256     30.493256     60.986512
     -4.879880     32.956913     32.956913     65.913826
     -4.869870     37.541901     37.541901     75.083802
     -4.859860     43.594665     43.594665     87.189330
     -4.849850     49.946216     49.946216     99.892433
     -4.839840     55.178927     55.178927    110.357854
     -4.829830     58.042864     58.042864    116.085729
     -4.819820     57.857204     57.857204    115.714409
     -4.809810     54.715275     54.715275    109.430550
     -4.799800     49.400952     49.400952     98.801905
     -4.789790     43.068693     43.068693     86.137387
     -4.779780     36.848670     36.848670     73.697340
     -4.769770     31.548371     31.548371     63.096742
     -4.759760     27.540423     27.540423     55.080847
     -4.749750     24.818877     24.818877     49.637755
     -4.739740     23.140507     23.140507     46.281015
     -4.729730     22.166229     22.166229     44.332459
     -4.719720     21.556539     21.556539     43.113079
     -4.709710     21.016762     21.016762     42.033524
     -4.699700     20.312383     20.312383     40.624766
     -4.689690     19.280616     19.280616     38.561232
     -4.679680     17.856628     17.856628     35.713256
     -4.669670     16.115661     16.115661     32.231321
     -4.659660     14.312506     14.312506     28.625012
     -4.649650     12.888319     12.888319     25.776637
     -4.639640     12.419179     12.419179     24.838358
     -4.629630     13.498843     13.498843     26.997685
     -4.619620     16.571246     16.571246     33.142493
     -4.609610     21.750795     21.750795     43.501590
     -4.599600     28.687726     28.687726     57.375453
     -4.589590     36.544604     36.544604     73.089207
     -4.579580     44.132934     44.132934     88.265868
     -4.569570     50.206030     50.206030    100.412061
     -4.559560     53.829250     53.829250    107.658501
     -4.549550     54.691409     54.691409    109.382818
     -4.539540     53.222897     53.222897    106.445794
     -4.529530     50.457645     50.457645    100.915290
     -4.519520     47.684772     47.684772     95.369544
     -4.509510     46.024661     46.024661     92.049323
     -4.499499     46.088376     46.088376     92.176753
     -4.489489     47.832083     47.832083     95.664166
     -4.479479     50.630698     50.630698    101.261395
     -4.469469     53.513784     53.513784    107.027568
     -4.459459     55.465348     55.465348    110.930697
     -4.449449     55.693293     55.693293    111.386587
     -4.439439     53.806905     53.806905    107.613810
     -4.429429     49.879417     49.879417     99.758833
     -4.419419     44.403420     44.403420     88.806840
     -4.409409     38.165735     38.165735     76.331469
     -4.399399     32.076201     32.076201     64.152401
     -4.389389     26.984587     26.984587     53.969174
     -4.379379     23.516358     23.516358     47.032716
     -4.369369     21.956183     21.956183     43.912366
     -4.359359     22.206688     22.206688     44.413376
     -4.349349     23.840867     23.840867     47.681734
     -4.339339     26.242918     26.242918     52.485837
     -4.329329     28.799057     28.799057     57.598114
     -4.319319     31.075023     31.075023     62.150047
     -4.309309     32.918329     32.918329     65.836659
     -4.299299     34.452775     34.452775     68.905549
     -4.289289     35.974076     35.974076     71.948152
     -4.279279     37.787184     37.787184     75.574367
     -4.269269     40.038822     40.038822     80.077644
     -4.259259     42.598457     42.598457     85.196914
     -4.249249     45.034146     45.034146     90.068292
     -4.239239     46.711663     46.711663     93.423325
     -4.229229     47.005267     47.005267     94.010533
     -4.219219     45.551232     45.551232     91.102464
     -4.209209     42.432382     42.432382     84.864764
     -4.199199     38.193397     38.193397     76.386795
     -4.189189     33.662847     33.662847     67.325693
     -4.179179     29.659826     29.659826     59.319652
     -4.169169     26.725780     26.725780     53.451561
     -4.159159     25.004131     25.004131     50.008261
     -4.149149     24.305789     24.305789     48.611577
     -4.139139     24.302774     24.302774     48.605549
     -4.129129     24.738095     24.738095     49.476190
     -4.119119     25.546339     25.546339     51.092678
     -4.109109     26.831279     26.831279     53.662558
     -4.099099     28.717068     28.717068     57.434136
     -4.089089     31.153009     31.153009     62.306017
     -4.079079     33.784321     33.784321     67.568642
     -4.069069     35.981171     35.981171     71.962343
     -4.059059     37.042036     37.042036     74.084072
     -4.049049     36.487526     36.487526     72.975052
     -4.039039     34.296879     34.296879     68.593758
     -4.029029     30.959336     30.959336     61.918672
     -4.019019     27.311451     27.311451     54.622903
     -4.009009     24.247794     24.247794     48.495588
     -3.998999     22.451694     22.451694     44.903387
     -3.988989     22.261058     22.261058     44.522116
     -3.978979     23.691522     23.691522     47.383043
     -3.968969     26.552294     26.552294     53.104587
     -3.958959     30.562953     30.562953     61.125907
     -3.948949     35.417079     35.417079     70.834158
     -3.938939     40.799910     40.799910     81.599819
     -3.928929     46.401253     46.401253     92.802507
     -3.918919     51.949937     51.949937    103.899873
     -3.908909     57.253515     57.253515    114.507029
     -3.898899     62.199304     62.199304    124.398607
     -3.888889     66.687814     66.687814    133.375628
     -3.878879     70.519134     70.519134    141.038267
     -3.868869     73.300687     73.300687    146.601374
     -3.858859     74.454377     74.454377    148.908754
     -3.848849     73.359559     73.359559    146.719117
     -3.838839     69.594757     69.594757    139.189515
     -3.828829     63.176408     63.176408    126.352817
     -3.818819     54.676948     54.676948    109.353897
     -3.808809     45.151341     45.151341     90.302682
     -3.798799     35.887376     35.887376     71.774752
     -3.788789     28.073279     28.073279     56.146558
     -3.778779     22.505169     22.505169     45.010338
     -3.768769     19.428177     19.428177     38.856353
     -3.758759     18.543535     18.543535     37.087070
     -3.748749     19.155814     19.155814     38.311629
     -3.738739     20.401911     20.401911     40.803822
     -3.728729     21.496961     21.496961     42.993923
     -3.718719     21.940420     21.940420     43.880839
     -3.708709     21.638197     21.638197     43.276394
     -3.698699     20.911933     20.911933     41.823867
     -3.688689     20.387263     20.387263     40.774526
     -3.678679     20.781768     20.781768     41.563537
     -3.668669     22.646771     22.646771     45.293543
     -3.658659     26.143798     26.143798     52.287596
     -3.648649     30.939632     30.939632     61.879264
     -3.638639     36.270497     36.270497     72.540995
     -3.628629     41.160735     41.160735     82.321470
     -3.618619     44.712692     44.712692     89.425384
     -3.608609     46.352204     46.352204     92.704409
     -3.598599     45.940940     45.940940     91.881880
     -3.588589     43.737277     43.737277     87.474554
     -3.578579     40.255383     40.255383     80.510766
     -3.568569     36.097210     36.097210     72.194419
     -3.558559     31.811292     31.811292     63.622583
     -3.548549     27.796942     27.796942     55.593885
     -3.538539     24.254717     24.254717     48.509433
     -3.528529     21.186956     21.186956     42.373913
     -3.518519     18.454137     18.454137     36.908275
     -3.508509     15.876451     15.876451     31.752901
     -3.498498     13.343914     13.343914     26.687828
     -3.488488     10.887081     10.887081     21.774161
     -3.478478      8.678110      8.678110     17.356219
     -3.468468      6.967255      6.967255     13.934511
     -3.458458      5.987666      5.987666     11.975332
     -3.448448      5.866668      5.866668     11.733335
     -3.438438      6.570003      6.570003     13.140006
     -3.428428      7.892173      7.892173     15.784346
     -3.418418      9.498360      9.498360     18.996719
     -3.408408     11.015343     11.015343     22.030687
     -3.398398     12.152274     12.152274     24.304548
     -3.388388     12.811369     12.811369     25.622738
     -3.378378     13.140424     13.140424     26.280849
     -3.368368     13.497163     13.497163     26.994326
     -3.358358     14.334618     14.334618     28.669235
     -3.348348     16.052579     16.052579     32.105157
     -3.338338     18.868680     18.868680     37.737359
     -3.328328     22.741276     22.741276     45.482552
     -3.318318     27.346826     27.346826     54.693652
     -3.308308     32.103383     32.103383     64.206767
     -3.298298     36.243620     36.243620     72.487240
     -3.288288     38.951876     38.951876     77.903752
     -3.278278     39.561639     39.561639     79.123277
     -3.268268     37.762965     37.762965     75.525930
     -3.258258     33.730949     33.730949     67.461898
     -3.248248     28.099478     28.099478     56.198956
     -3.238238     21.774672     21.774672     43.549344
     -3.228228     15.665889     15.665889     31.331779
     -3.218218     10.451243     10.451243     20.902486
     -3.208208      6.465243      6.465243     12.930485
     -3.198198      3.724981      3.724981      7.449962
     -3.188188      2.048167      2.048167      4.096335
     -3.178178      1.194281      1.194281      2.388561
     -3.168168      0.977213      0.977213      1.954426
     -3.158158      1.329074      1.329074      2.658148
     -3.148148      2.316816      2.316816      4.633632
     -3.138138      4.118586      4.118586      8.237173
     -3.128128      6.962982      6.962982     13.925964
     -3.118118     11.034255     11.034255     22.068510
     -3.108108     16.357446     16.357446     32.714892
     -3.098098     22.696052     22.696052     45.392104
     -3.088088     29.508532     29.508532     59.017064
     -3.078078     36.003718     36.003718     72.007435
     -3.068068     41.302526     41.302526     82.605052
     -3.058058     44.664308     44.664308     89.328617
     -3.048048     45.696253     45.696253     91.392506
     -3.038038     44.460631     44.460631     88.921262
     -3.028028     41.436183     41.436183     82.872366
     -3.018018     37.356300     37.356300     74.712600
     -3.008008     32.999044     32.999044     65.998088
     -2.997998     29.012870     29.012870     58.025740
     -2.987988     25.828566     25.828566     51.657132
     -2.977978     23.660607     23.660607     47.321213
     -2.967968     22.568279     22.568279     45.136559
     -2.957958     22.536290     22.536290     45.072580
     -2.947948     23.536636     23.536636     47.073272
     -2.937938     25.541794     25.541794     51.083588
     -2.927928     28.478426     28.478426     56.956852
     -2.917918     32.144199     32.144199     64.288399
     -2.907908     36.143549     36.143549     72.287098
     -2.897898     39.904096     39.904096     79.808191
     -2.887888     42.798554     42.798554     85.597109
     -2.877878     44.333685     44.333685     88.667369
     -2.867868     44.318437     44.318437     88.636874
     -2.857858     42.923110     42.923110     85.846219
     -2.847848     40.593697     40.593697     81.187395
     -2.837838     37.860609     37.860609     75.721217
     -2.827828     35.135039     35.135039     70.270078
     -2.817818     32.589704     32.589704     65.179408
     -2.807808     30.172925     30.172925     60.345850
     -2.797798     27.733692     27.733692     55.467385
     -2.787788     25.179185     25.179185     50.358371
     -2.777778     22.574870     22.574870     45.149741
     -2.767768     20.135476     20.135476     40.270953
     -2.757758     18.120680     18.120680     36.241359
     -2.747748     16.704800     16.704800     33.409601
     -2.737738     15.902997     15.902997     31.805993
     -2.727728     15.598937     15.598937     31.197874
     -2.717718     15.652687     15.652687     31.305373
     -2.707708     16.013760     16.013760     32.027519
     -2.697698     16.758726     16.758726     33.517451
     -2.687688     18.021818     18.021818     36.043637
     -2.677678     19.860721     19.860721     39.721442
     -2.667668     22.149060     22.149060     44.298120
     -2.657658     24.576202     24.576202     49.152405
     -2.647648     26.767144     26.767144     53.534288
     -2.637638     28.454383     28.454383     56.908766
     -2.627628     29.595862     29.595862     59.191725
     -2.617618     30.366795     30.366795     60.733589
     -2.607608     31.035800     31.035800     62.071600
     -2.597598     31.807922     31.807922     63.615845
     -2.587588     32.727278     32.727278     65.454557
     -2.577578     33.677884     33.677884     67.355768
     -2.567568     34.450528     34.450528     68.901056
     -2.557558     34.813483     34.813483     69.626967
     -2.547548     34.552476     34.552476     69.104952
     -2.537538     33.495609     33.495609     66.991218
     -2.527528     31.559762     31.559762     63.119523
     -2.517518     28.826318     28.826318     57.652636
     -2.507508     25.604995     25.604995     51.209990
     -2.497497     22.423674     22.423674     44.847348
     -2.487487     19.913014     19.913014     39.826027
     -2.477477     18.616808     18.616808     37.233616
     -2.467467     18.808812     18.808812     37.617624
     -2.457457     20.402033     20.402033     40.804066
     -2.447447     22.995721     22.995721     45.991442
     -2.437437     26.041639     26.041639     52.083277
     -2.427427     29.055675     29.055675     58.111349
     -2.417417     31.778718     31.778718     63.557436
     -2.407407     34.212846     34.212846     68.425692
     -2.397397     36.517161     36.517161     73.034323
     -2.387387     38.816164     38.816164     77.632328
     -2.377377     41.019426     41.019426     82.038852
     -2.367367     42.750914     42.750914     85.501828
     -2.357357     43.437214     43.437214     86.874427
     -2.347347     42.527313     42.527313     85.054625
     -2.337337     39.748810     39.748810     79.497620
     -2.327327     35.282007     35.282007     70.564013
     -2.317317     29.769450     29.769450     59.538900
     -2.307307     24.156304     24.156304     48.312608
     -2.297297     19.432984     19.432984     38.865969
     -2.287287     16.384590     16.384590     32.769181
     -2.277277     15.430358     15.430358     30.860716
     -2.267267     16.583639     16.583639     33.167278
     -2.257257     19.513841     19.513841     39.027682
     -2.247247     23.667123     23.667123     47.334247
     -2.237237     28.400905     28.400905     56.801810
     -2.227227     33.096655     33.096655     66.193311
     -2.217217     37.229203     37.229203     74.458406
     -2.207207     40.389086     40.389086     80.778173
     -2.197197     42.275750     42.275750     84.551501
     -2.187187     42.693532     42.693532     85.387063
     -2.177177     41.576030     41.576030     83.152059
     -2.167167     39.035061     39.035061     78.070123
     -2.157157     35.395311     35.395311     70.790623
     -2.147147     31.164021     31.164021     62.328042
     -2.137137     26.914116     26.914116     53.828232
     -2.127127     23.115669     23.115669     46.231338
     -2.117117     19.995002     19.995002     39.990004
     -2.107107     17.496667     17.496667     34.993334
     -2.097097     15.368729     15.368729     30.737458
     -2.087087     13.322042     13.322042     26.644084
     -2.077077     11.176801     11.176801     22.353602
     -2.067067      8.926878      8.926878     17.853756
     -2.057057      6.707507      6.707507     13.415014
     -2.047047      4.704949      4.704949      9.409898
     -2.037037      3.066507      3.066507      6.133014
     -2.027027      1.852282      1.852282      3.704565
     -2.017017      1.036606      1.036606      2.073211
     -2.007007      0.541229      0.541229      1.082458
     -1.996997      0.275562      0.275562      0.551124
     -1.986987      0.167482      0.167482      0.334964
     -1.976977      0.180568      0.180568      0.361135
     -1.966967      0.321288      0.321288      0.642575
     -1.956957      0.640170      0.640170      1.280339
     -1.946947      1.226810      1.226810      2.453619
     -1.936937      2.194348      2.194348      4.388696
     -1.926927      3.649046      3.649046      7.298092
     -1.916917      5.646798      5.646798     11.293596
     -1.906907      8.148529      8.148529     16.297057
     -1.896897     10.993929     10.993929     21.987858
     -1.886887     13.910998     13.910998     27.821997
     -1.876877     16.565842     16.565842     33.131684
     -1.866867     18.639885     18.639885     37.279769
     -1.856857     19.910130     19.910130     39.820259
     -1.846847     20.307441     20.307441     40.614882
     -1.836837     19.934845     19.934845     39.869691
     -1.826827     19.037119     19.037119     38.074237
     -1.816817     17.924190     17.924190     35.848380
     -1.806807     16.867513     16.867513     33.735026
     -1.796797     16.007410     16.007410     32.014820
     -1.786787     15.316451     15.316451     30.632902
     -1.776777     14.644877     14.644877     29.289755
     -1.766767     13.831758     13.831758     27.663517
     -1.756757     12.824505     12.824505     25.649009
     -1.746747     11.738972     11.738972     23.477944
     -1.736737     10.823198     10.823198     21.646397
     -1.726727     10.342062     10.342062     20.684124
     -1.716717     10.444817     10.444817     20.889633
     -1.706707     11.086887     11.086887     22.173773
     -1.696697     12.047423     12.047423     24.094846
     -1.686687     13.032015     13.032015     26.064030
     -1.676677     13.803434     13.803434     27.606868
     -1.666667     14.268052     14.268052     28.536104
     -1.656657     14.472054     14.472054     28.944108
     -1.646647     14.516617     14.516617     29.033234
     -1.636637     14.451871     14.451871     28.903741
     -1.626627     14.222415     14.222415     28.444831
