# EIG2DOS: Utility for SIESTA to obtain the electronic density of states
#  E. Artacho, Apr 1999, A. Garcia, Apr 2012
#  Nick R. Papior, Feb 2017
# ------------------------------------------
# Eigenvalues calculated from a non-polarized calculation
# Eigenvalues read from siesta.EIG
# Kpoint weights read from siesta.KP
# Using smearing parameter:   0.0500
# Using 1000 points in the energy range
# Selected bands: 1 to: 2981
# Emin, Emax in file for selected band(s):    -27.2573548    218.4055980
# Nbands, Nspin, Nk   =   2981     1     1
# E_F                 =    -4.1865 eV --> (shifted to ZERO)
# Broadening          =     0.0500 eV
#
#        E            N(up)  (=)   N(down)         Ntot
     -5.000000     33.686606     33.686606     67.373213
     -4.989990     38.881318     38.881318     77.762635
     -4.979980     43.443893     43.443893     86.887785
     -4.969970     46.534722     46.534722     93.069444
     -4.959960     47.562772     47.562772     95.125545
     -4.949950     46.386267     46.386267     92.772534
     -4.939940     43.361649     43.361649     86.723298
     -4.929930     39.243090     39.243090     78.486179
     -4.919920     34.997711     34.997711     69.995421
     -4.909910     31.610474     31.610474     63.220948
     -4.899900     29.915217     29.915217     59.830434
     -4.889890     30.448250     30.448250     60.896499
     -4.879880     33.317980     33.317980     66.635960
     -4.869870     38.118683     38.118683     76.237367
     -4.859860     43.949240     43.949240     87.898479
     -4.849850     49.585041     49.585041     99.170083
     -4.839840     53.785947     53.785947    107.571894
     -4.829830     55.643394     55.643394    111.286788
     -4.819820     54.831158     54.831158    109.662316
     -4.809810     51.657464     51.657464    103.314928
     -4.799800     46.905157     46.905157     93.810314
     -4.789790     41.540496     41.540496     83.080992
     -4.779780     36.418800     36.418800     72.837601
     -4.769770     32.096699     32.096699     64.193398
     -4.759760     28.795127     28.795127     57.590253
     -4.749750     26.485043     26.485043     52.970087
     -4.739740     25.023820     25.023820     50.047640
     -4.729730     24.266510     24.266510     48.533020
     -4.719720     24.104868     24.104868     48.209736
     -4.709710     24.431810     24.431810     48.863620
     -4.699700     25.072551     25.072551     50.145102
     -4.689690     25.747327     25.747327     51.494654
     -4.679680     26.118754     26.118754     52.237507
     -4.669670     25.928701     25.928701     51.857403
     -4.659660     25.168139     25.168139     50.336277
     -4.649650     24.185549     24.185549     48.371098
     -4.639640     23.651997     23.651997     47.303995
     -4.629630     24.361266     24.361266     48.722532
     -4.619620     26.922807     26.922807     53.845613
     -4.609610     31.466211     31.466211     62.932423
     -4.599600     37.490030     37.490030     74.980061
     -4.589590     43.943708     43.943708     87.887416
     -4.579580     49.539441     49.539441     99.078882
     -4.569570     53.185698     53.185698    106.371396
     -4.559560     54.367217     54.367217    108.734434
     -4.549550     53.309100     53.309100    106.618200
     -4.539540     50.856015     50.856015    101.712029
     -4.529530     48.124831     48.124831     96.249662
     -4.519520     46.083607     46.083607     92.167215
     -4.509510     45.227677     45.227677     90.455354
     -4.499499     45.465789     45.465789     90.931578
     -4.489489     46.232817     46.232817     92.465634
     -4.479479     46.756560     46.756560     93.513121
     -4.469469     46.358175     46.358175     92.716349
     -4.459459     44.671022     44.671022     89.342044
     -4.449449     41.712633     41.712633     83.425265
     -4.439439     37.814476     37.814476     75.628952
     -4.429429     33.472316     33.472316     66.944633
     -4.419419     29.199606     29.199606     58.399212
     -4.409409     25.440523     25.440523     50.881047
     -4.399399     22.546794     22.546794     45.093587
     -4.389389     20.779272     20.779272     41.558545
     -4.379379     20.290757     20.290757     40.581514
     -4.369369     21.081012     21.081012     42.162024
     -4.359359     22.958289     22.958289     45.916578
     -4.349349     25.556506     25.556506     51.113011
     -4.339339     28.429447     28.429447     56.858894
     -4.329329     31.192719     31.192719     62.385439
     -4.319319     33.647715     33.647715     67.295430
     -4.309309     35.824541     35.824541     71.649081
     -4.299299     37.919159     37.919159     75.838319
     -4.289289     40.149162     40.149162     80.298325
     -4.279279     42.587799     42.587799     85.175597
     -4.269269     45.046372     45.046372     90.092745
     -4.259259     47.061998     47.061998     94.123997
     -4.249249     48.014237     48.014237     96.028473
     -4.239239     47.344476     47.344476     94.688952
     -4.229229     44.799669     44.799669     89.599337
     -4.219219     40.593812     40.593812     81.187624
     -4.209209     35.401849     35.401849     70.803698
     -4.199199     30.171731     30.171731     60.343461
     -4.189189     25.827241     25.827241     51.654482
     -4.179179     22.987723     22.987723     45.975446
     -4.169169     21.820757     21.820757     43.641514
     -4.159159     22.078097     22.078097     44.156194
     -4.149149     23.281121     23.281121     46.562242
     -4.139139     24.960207     24.960207     49.920414
     -4.129129     26.835936     26.835936     53.671871
     -4.119119     28.861263     28.861263     57.722525
     -4.109109     31.110199     31.110199     62.220399
     -4.099099     33.576397     33.576397     67.152793
     -4.089089     36.000350     36.000350     72.000700
     -4.079079     37.842116     37.842116     75.684233
     -4.069069     38.445027     38.445027     76.890055
     -4.059059     37.325512     37.325512     74.651023
     -4.049049     34.440558     34.440558     68.881117
     -4.039039     30.285807     30.285807     60.571614
     -4.029029     25.767848     25.767848     51.535696
     -4.019019     21.916173     21.916173     43.832346
     -4.009009     19.575878     19.575878     39.151756
     -3.998999     19.211182     19.211182     38.422363
     -3.988989     20.872441     20.872441     41.744883
     -3.978979     24.292952     24.292952     48.585904
     -3.968969     29.036658     29.036658     58.073316
     -3.958959     34.627394     34.627394     69.254789
     -3.948949     40.631461     40.631461     81.262922
     -3.938939     46.701397     46.701397     93.402793
     -3.928929     52.596152     52.596152    105.192304
     -3.918919     58.176395     58.176395    116.352791
     -3.908909     63.359862     63.359862    126.719725
     -3.898899     68.033479     68.033479    136.066957
     -3.888889     71.953323     71.953323    143.906646
     -3.878879     74.691992     74.691992    149.383984
     -3.868869     75.686294     75.686294    151.372588
     -3.858859     74.392570     74.392570    148.785139
     -3.848849     70.497998     70.497998    140.995997
     -3.838839     64.099938     64.099938    128.199876
     -3.828829     55.772523     55.772523    111.545046
     -3.818819     46.484926     46.484926     92.969852
     -3.808809     37.394188     37.394188     74.788377
     -3.798799     29.580181     29.580181     59.160363
     -3.788789     23.805096     23.805096     47.610192
     -3.778779     20.364788     20.364788     40.729576
     -3.768769     19.065647     19.065647     38.131294
     -3.758759     19.323227     19.323227     38.646454
     -3.748749     20.349003     20.349003     40.698006
     -3.738739     21.374470     21.374470     42.748939
     -3.728729     21.857489     21.857489     43.714977
     -3.718719     21.621910     21.621910     43.243820
     -3.708709     20.895544     20.895544     41.791088
     -3.698699     20.232212     20.232212     40.464423
     -3.688689     20.330425     20.330425     40.660851
     -3.678679     21.791951     21.791951     43.583903
     -3.668669     24.890584     24.890584     49.781168
     -3.658659     29.431504     29.431504     58.863008
     -3.648649     34.761393     34.761393     69.522785
     -3.638639     39.937341     39.937341     79.874681
     -3.628629     43.997044     43.997044     87.994089
     -3.618619     46.227580     46.227580     92.455160
     -3.608609     46.333553     46.333553     92.667105
     -3.598599     44.457475     44.457475     88.914950
     -3.588589     41.073548     41.073548     82.147095
     -3.578579     36.819201     36.819201     73.638402
     -3.568569     32.328438     32.328438     64.656875
     -3.558559     28.103298     28.103298     56.206596
     -3.548549     24.435386     24.435386     48.870773
     -3.538539     21.383216     21.383216     42.766433
     -3.528529     18.811957     18.811957     37.623915
     -3.518519     16.490867     16.490867     32.981734
     -3.508509     14.218465     14.218465     28.436929
     -3.498498     11.925773     11.925773     23.851546
     -3.488488      9.714218      9.714218     19.428437
     -3.478478      7.816573      7.816573     15.633146
     -3.468468      6.505179      6.505179     13.010359
     -3.458458      5.989187      5.989187     11.978374
     -3.448448      6.337392      6.337392     12.674783
     -3.438438      7.447996      7.447996     14.895991
     -3.428428      9.073978      9.073978     18.147957
     -3.418418     10.902703     10.902703     21.805406
     -3.408408     12.672704     12.672704     25.345408
     -3.398398     14.288388     14.288388     28.576775
     -3.388388     15.879102     15.879102     31.758205
     -3.378378     17.761828     17.761828     35.523656
     -3.368368     20.309872     20.309872     40.619744
     -3.358358     23.780653     23.780653     47.561305
     -3.348348     28.179124     28.179124     56.358249
     -3.338338     33.211432     33.211432     66.422863
     -3.328328     38.332416     38.332416     76.664832
     -3.318318     42.850023     42.850023     85.700045
     -3.308308     46.046948     46.046948     92.093897
     -3.298298     47.305178     47.305178     94.610356
     -3.288288     46.235605     46.235605     92.471210
     -3.278278     42.798722     42.798722     85.597444
     -3.268268     37.370041     37.370041     74.740082
     -3.258258     30.697364     30.697364     61.394728
     -3.248248     23.738217     23.738217     47.476435
     -3.238238     17.429787     17.429787     34.859573
     -3.228228     12.480514     12.480514     24.961028
     -3.218218      9.254238      9.254238     18.508475
     -3.208208      7.762897      7.762897     15.525794
     -3.198198      7.736775      7.736775     15.473551
     -3.188188      8.730739      8.730739     17.461479
     -3.178178     10.242952     10.242952     20.485904
     -3.168168     11.838889     11.838889     23.677777
     -3.158158     13.267338     13.267338     26.534676
     -3.148148     14.533810     14.533810     29.067620
     -3.138138     15.887306     15.887306     31.774612
     -3.128128     17.699820     17.699820     35.399640
     -3.118118     20.269411     20.269411     40.538822
     -3.108108     23.627578     23.627578     47.255155
     -3.098098     27.445710     27.445710     54.891421
     -3.088088     31.098030     31.098030     62.196061
     -3.078078     33.864403     33.864403     67.728806
     -3.068068     35.184159     35.184159     70.368318
     -3.058058     34.843014     34.843014     69.686027
     -3.048048     33.009210     33.009210     66.018420
     -3.038038     30.115623     30.115623     60.231247
     -3.028028     26.665041     26.665041     53.330083
     -3.018018     23.067781     23.067781     46.135561
     -3.008008     19.586851     19.586851     39.173702
     -2.997998     16.392403     16.392403     32.784805
     -2.987988     13.664237     13.664237     27.328475
     -2.977978     11.665253     11.665253     23.330506
     -2.967968     10.739169     10.739169     21.478337
     -2.957958     11.233057     11.233057     22.466115
     -2.947948     13.378807     13.378807     26.757614
     -2.937938     17.177858     17.177858     34.355716
     -2.927928     22.329012     22.329012     44.658023
     -2.917918     28.229636     28.229636     56.459271
     -2.907908     34.066326     34.066326     68.132651
     -2.897898     38.986528     38.986528     77.973055
     -2.887888     42.309124     42.309124     84.618248
     -2.877878     43.703762     43.703762     87.407525
     -2.867868     43.265866     43.265866     86.531733
     -2.857858     41.448042     41.448042     82.896084
     -2.847848     38.869566     38.869566     77.739132
     -2.837838     36.084471     36.084471     72.168942
     -2.827828     33.411459     33.411459     66.822918
     -2.817818     30.898321     30.898321     61.796641
     -2.807808     28.423311     28.423311     56.846621
     -2.797798     25.864710     25.864710     51.729419
     -2.787788     23.238565     23.238565     46.477130
     -2.777778     20.730856     20.730856     41.461713
     -2.767768     18.617200     18.617200     37.234399
     -2.757758     17.129991     17.129991     34.259981
     -2.747748     16.359640     16.359640     32.719280
     -2.737738     16.247932     16.247932     32.495864
     -2.727728     16.666589     16.666589     33.333178
     -2.717718     17.515664     17.515664     35.031329
     -2.707708     18.764712     18.764712     37.529425
     -2.697698     20.404928     20.404928     40.809857
     -2.687688     22.352090     22.352090     44.704179
     -2.677678     24.385468     24.385468     48.770936
     -2.667668     26.189497     26.189497     52.378994
     -2.657658     27.491500     27.491500     54.982999
     -2.647648     28.212614     28.212614     56.425228
     -2.637638     28.528633     28.528633     57.057265
     -2.627628     28.791454     28.791454     57.582908
     -2.617618     29.352384     29.352384     58.704767
     -2.607608     30.389601     30.389601     60.779202
     -2.597598     31.831245     31.831245     63.662490
     -2.587588     33.396552     33.396552     66.793105
     -2.577578     34.706463     34.706463     69.412927
     -2.567568     35.393124     35.393124     70.786248
     -2.557558     35.170353     35.170353     70.340707
     -2.547548     33.875224     33.875224     67.750448
     -2.537538     31.509136     31.509136     63.018272
     -2.527528     28.283620     28.283620     56.567240
     -2.517518     24.639835     24.639835     49.279670
     -2.507508     21.199742     21.199742     42.399484
     -2.497497     18.634837     18.634837     37.269674
     -2.487487     17.485496     17.485496     34.970992
     -2.477477     17.997829     17.997829     35.995659
     -2.467467     20.045588     20.045588     40.091175
     -2.457457     23.173714     23.173714     46.347427
     -2.447447     26.753036     26.753036     53.506073
     -2.437437     30.190635     30.190635     60.381271
     -2.427427     33.114107     33.114107     66.228215
     -2.417417     35.452505     35.452505     70.905011
     -2.407407     37.375315     37.375315     74.750629
     -2.397397     39.112616     39.112616     78.225232
     -2.387387     40.739814     40.739814     81.479628
     -2.377377     42.038450     42.038450     84.076899
     -2.367367     42.518780     42.518780     85.037560
     -2.357357     41.612817     41.612817     83.225634
     -2.347347     38.953794     38.953794     77.907588
     -2.337337     34.603657     34.603657     69.207315
     -2.327327     29.112393     29.112393     58.224786
     -2.317317     23.381825     23.381825     46.763650
     -2.307307     18.405972     18.405972     36.811943
     -2.297297     15.008638     15.008638     30.017277
     -2.287287     13.675337     13.675337     27.350674
     -2.277277     14.510099     14.510099     29.020197
     -2.267267     17.287846     17.287846     34.575692
     -2.257257     21.550045     21.550045     43.100089
     -2.247247     26.702266     26.702266     53.404532
     -2.237237     32.095343     32.095343     64.190687
     -2.227227     37.089130     37.089130     74.178261
     -2.217217     41.105190     41.105190     82.210380
     -2.207207     43.676012     43.676012     87.352023
     -2.197197     44.496507     44.496507     88.993015
     -2.187187     43.476848     43.476848     86.953696
     -2.177177     40.782602     40.782602     81.565204
     -2.167167     36.834359     36.834359     73.668718
     -2.157157     32.238627     32.238627     64.477255
     -2.147147     27.646169     27.646169     55.292339
     -2.137137     23.576559     23.576559     47.153118
     -2.127127     20.281432     20.281432     40.562864
     -2.117117     17.713863     17.713863     35.427726
     -2.107107     15.622071     15.622071     31.244142
     -2.097097     13.720187     13.720187     27.440374
     -2.087087     11.849502     11.849502     23.699004
     -2.077077     10.054630     10.054630     20.109261
     -2.067067      8.549218      8.549218     17.098437
     -2.057057      7.600760      7.600760     15.201520
     -2.047047      7.393832      7.393832     14.787665
     -2.037037      7.928927      7.928927     15.857854
     -2.027027      8.992319      8.992319     17.984639
     -2.017017     10.205703     10.205703     20.411406
     -2.007007     11.138971     11.138971     22.277942
     -1.996997     11.447912     11.447912     22.895824
     -1.986987     10.986918     10.986918     21.973837
     -1.976977      9.854387      9.854387     19.708773
     -1.966967      8.356449      8.356449     16.712897
     -1.956957      6.909610      6.909610     13.819220
     -1.946947      5.924283      5.924283     11.848567
     -1.936937      5.708237      5.708237     11.416474
     -1.926927      6.409072      6.409072     12.818144
     -1.916917      7.995592      7.995592     15.991183
     -1.906907     10.270895     10.270895     20.541790
     -1.896897     12.912315     12.912315     25.824629
     -1.886887     15.534444     15.534444     31.068887
     -1.876877     17.766197     17.766197     35.532394
     -1.866867     19.325751     19.325751     38.651501
     -1.856857     20.075597     20.075597     40.151193
     -1.846847     20.044707     20.044707     40.089413
     -1.836837     19.411061     19.411061     38.822122
     -1.826827     18.443596     18.443596     36.887193
     -1.816817     17.412425     17.412425     34.824850
     -1.806807     16.492722     16.492722     32.985445
     -1.796797     15.702060     15.702060     31.404121
     -1.786787     14.906369     14.906369     29.812738
     -1.776777     13.899049     13.899049     27.798099
     -1.766767     12.516394     12.516394     25.032788
     -1.756757     10.729594     10.729594     21.459188
     -1.746747      8.667739      8.667739     17.335479
     -1.736737      6.568203      6.568203     13.136406
     -1.726727      4.690983      4.690983      9.381966
     -1.716717      3.245911      3.245911      6.491821
     -1.706707      2.362529      2.362529      4.725058
     -1.696697      2.099689      2.099689      4.199377
     -1.686687      2.468253      2.468253      4.936507
     -1.676677      3.438522      3.438522      6.877043
     -1.666667      4.921763      4.921763      9.843525
     -1.656657      6.740265      6.740265     13.480529
     -1.646647      8.616996      8.616996     17.233993
     -1.636637     10.212928     10.212928     20.425857
     -1.626627     11.216237     11.216237     22.432474
