# EIG2DOS: Utility for SIESTA to obtain the electronic density of states
#  E. Artacho, Apr 1999, A. Garcia, Apr 2012
#  Nick R. Papior, Feb 2017
# ------------------------------------------
# Eigenvalues calculated from a non-polarized calculation
# Eigenvalues read from siesta.EIG
# Kpoint weights read from siesta.KP
# Using smearing parameter:   0.0500
# Using 1000 points in the energy range
# Selected bands: 1 to: 2981
# Emin, Emax in file for selected band(s):    -27.2531195    218.3662600
# Nbands, Nspin, Nk   =   2981     1     1
# E_F                 =    -4.2380 eV --> (shifted to ZERO)
# Broadening          =     0.0500 eV
#
#        E            N(up)  (=)   N(down)         Ntot
     -5.000000     32.588179     32.588179     65.176358
     -4.989990     37.062015     37.062015     74.124030
     -4.979980     41.126451     41.126451     82.252902
     -4.969970     44.126199     44.126199     88.252399
     -4.959960     45.526649     45.526649     91.053297
     -4.949950     45.088235     45.088235     90.176470
     -4.939940     42.953133     42.953133     85.906266
     -4.929930     39.622663     39.622663     79.245326
     -4.919920     35.853322     35.853322     71.706643
     -4.909910     32.518752     32.518752     65.037505
     -4.899900     30.467431     30.467431     60.934861
     -4.889890     30.375491     30.375491     60.750982
     -4.879880     32.586760     32.586760     65.173520
     -4.869870     36.962653     36.962653     73.925307
     -4.859860     42.809352     42.809352     85.618705
     -4.849850     48.961729     48.961729     97.923458
     -4.839840     54.052801     54.052801    108.105601
     -4.829830     56.901852     56.901852    113.803703
     -4.819820     56.873209     56.873209    113.746418
     -4.809810     54.050714     54.050714    108.101428
     -4.799800     49.154093     49.154093     98.308186
     -4.789790     43.247145     43.247145     86.494290
     -4.779780     37.379295     37.379295     74.758589
     -4.769770     32.310655     32.310655     64.621309
     -4.759760     28.402551     28.402551     56.805102
     -4.749750     25.663163     25.663163     51.326326
     -4.739740     23.877493     23.877493     47.754985
     -4.729730     22.744021     22.744021     45.488043
     -4.719720     21.971096     21.971096     43.942192
     -4.709710     21.324658     21.324658     42.649315
     -4.699700     20.645086     20.645086     41.290173
     -4.689690     19.858382     19.858382     39.716764
     -4.679680     18.997006     18.997006     37.994011
     -4.669670     18.225106     18.225106     36.450211
     -4.659660     17.844721     17.844721     35.689442
     -4.649650     18.258254     18.258254     36.516508
     -4.639640     19.880997     19.880997     39.761994
     -4.629630     23.022422     23.022422     46.044845
     -4.619620     27.768521     27.768521     55.537041
     -4.609610     33.895532     33.895532     67.791063
     -4.599600     40.839179     40.839179     81.678358
     -4.589590     47.742654     47.742654     95.485309
     -4.579580     53.602811     53.602811    107.205623
     -4.569570     57.508536     57.508536    115.017073
     -4.559560     58.914997     58.914997    117.829993
     -4.549550     57.850248     57.850248    115.700495
     -4.539540     54.948389     54.948389    109.896779
     -4.529530     51.264806     51.264806    102.529612
     -4.519520     47.928093     47.928093     95.856185
     -4.509510     45.764371     45.764371     91.528742
     -4.499499     45.045645     45.045645     90.091289
     -4.489489     45.456327     45.456327     90.912654
     -4.479479     46.273549     46.273549     92.547099
     -4.469469     46.668368     46.668368     93.336736
     -4.459459     45.997307     45.997307     91.994613
     -4.449449     43.978127     43.978127     87.956254
     -4.439439     40.710835     40.710835     81.421669
     -4.429429     36.577254     36.577254     73.154508
     -4.419419     32.094485     32.094485     64.188970
     -4.409409     27.792614     27.792614     55.585227
     -4.399399     24.145728     24.145728     48.291457
     -4.389389     21.538933     21.538933     43.077865
     -4.379379     20.235096     20.235096     40.470192
     -4.369369     20.324437     20.324437     40.648875
     -4.359359     21.678330     21.678330     43.356659
     -4.349349     23.951535     23.951535     47.903070
     -4.339339     26.662429     26.662429     53.324859
     -4.329329     29.336964     29.336964     58.673929
     -4.319319     31.660244     31.660244     63.320487
     -4.309309     33.568479     33.568479     67.136958
     -4.299299     35.239243     35.239243     70.478487
     -4.289289     36.981483     36.981483     73.962966
     -4.279279     39.065144     39.065144     78.130289
     -4.269269     41.551479     41.551479     83.102958
     -4.259259     44.189241     44.189241     88.378481
     -4.249249     46.429833     46.429833     92.859667
     -4.239239     47.580572     47.580572     95.161143
     -4.229229     47.058698     47.058698     94.117397
     -4.219219     44.649069     44.649069     89.298139
     -4.209209     40.643899     40.643899     81.287798
     -4.199199     35.783300     35.783300     71.566599
     -4.189189     31.010137     31.010137     62.020274
     -4.179179     27.149069     27.149069     54.298138
     -4.169169     24.657556     24.657556     49.315112
     -4.159159     23.553511     23.553511     47.107022
     -4.149149     23.529848     23.529848     47.059697
     -4.139139     24.177428     24.177428     48.354857
     -4.129129     25.198212     25.198212     50.396424
     -4.119119     26.508918     26.508918     53.017835
     -4.109109     28.193967     28.193967     56.387933
     -4.099099     30.338841     30.338841     60.677682
     -4.089089     32.835690     32.835690     65.671379
     -4.079079     35.276715     35.276715     70.553429
     -4.069069     37.017692     37.017692     74.035383
     -4.059059     37.407832     37.407832     74.815663
     -4.049049     36.083799     36.083799     72.167598
     -4.039039     33.176281     33.176281     66.352561
     -4.029029     29.315759     29.315759     58.631518
     -4.019019     25.431481     25.431481     50.862962
     -4.009009     22.446748     22.446748     44.893495
     -3.998999     21.016601     21.016601     42.033202
     -3.988989     21.410769     21.410769     42.821537
     -3.978979     23.552753     23.552753     47.105506
     -3.968969     27.148273     27.148273     54.296546
     -3.958959     31.816203     31.816203     63.632407
     -3.948949     37.171086     37.171086     74.342171
     -3.938939     42.859751     42.859751     85.719502
     -3.928929     48.582480     48.582480     97.164961
     -3.918919     54.116077     54.116077    108.232155
     -3.908909     59.323450     59.323450    118.646900
     -3.898899     64.119022     64.119022    128.238045
     -3.888889     68.381475     68.381475    136.762950
     -3.878879     71.850550     71.850550    143.701101
     -3.868869     74.076361     74.076361    148.152722
     -3.858859     74.478806     74.478806    148.957612
     -3.848849     72.521935     72.521935    145.043870
     -3.838839     67.942865     67.942865    135.885730
     -3.828829     60.935437     60.935437    121.870873
     -3.818819     52.198883     52.198883    104.397767
     -3.808809     42.816985     42.816985     85.633971
     -3.798799     34.004715     34.004715     68.009430
     -3.788789     26.811374     26.811374     53.622748
     -3.778779     21.879392     21.879392     43.758785
     -3.768769     19.328227     19.328227     38.656455
     -3.758759     18.783825     18.783825     37.567649
     -3.748749     19.529622     19.529622     39.059244
     -3.738739     20.728465     20.728465     41.456930
     -3.728729     21.656561     21.656561     43.313122
     -3.718719     21.894620     21.894620     43.789239
     -3.708709     21.432249     21.432249     42.864497
     -3.698699     20.658057     20.658057     41.316113
     -3.688689     20.230927     20.230927     40.461853
     -3.678679     20.857960     20.857960     41.715920
     -3.668669     23.037371     23.037371     46.074743
     -3.658659     26.848624     26.848624     53.697248
     -3.648649     31.870921     31.870921     63.741842
     -3.638639     37.273439     37.273439     74.546877
     -3.628629     42.053427     42.053427     84.106854
     -3.618619     45.331869     45.331869     90.663738
     -3.608609     46.590048     46.590048     93.180097
     -3.598599     45.763563     45.763563     91.527126
     -3.588589     43.183403     43.183403     86.366806
     -3.578579     39.419660     39.419660     78.839321
     -3.568569     35.104561     35.104561     70.209121
     -3.558559     30.788330     30.788330     61.576660
     -3.548549     26.846283     26.846283     53.692566
     -3.538539     23.438166     23.438166     46.876332
     -3.528529     20.522164     20.522164     41.044328
     -3.518519     17.925008     17.925008     35.850016
     -3.508509     15.452020     15.452020     30.904040
     -3.498498     12.997037     12.997037     25.994073
     -3.488488     10.605489     10.605489     21.210978
     -3.478478      8.465204      8.465204     16.930409
     -3.468468      6.835014      6.835014     13.670029
     -3.458458      5.946490      5.946490     11.892981
     -3.448448      5.916537      5.916537     11.833075
     -3.438438      6.695681      6.695681     13.391363
     -3.428428      8.063930      8.063930     16.127859
     -3.418418      9.678789      9.678789     19.357579
     -3.408408     11.171343     11.171343     22.342687
     -3.398398     12.268918     12.268918     24.537836
     -3.388388     12.902712     12.902712     25.805425
     -3.378378     13.253138     13.253138     26.506276
     -3.368368     13.706741     13.706741     27.413483
     -3.358358     14.738527     14.738527     29.477053
     -3.348348     16.766681     16.766681     33.533363
     -3.338338     20.030637     20.030637     40.061275
     -3.328328     24.518533     24.518533     49.037065
     -3.318318     29.940863     29.940863     59.881727
     -3.308308     35.739532     35.739532     71.479063
     -3.298298     41.138231     41.138231     82.276461
     -3.288288     45.255798     45.255798     90.511596
     -3.278278     47.289799     47.289799     94.579598
     -3.268268     46.732134     46.732134     93.464267
     -3.258258     43.535758     43.535758     87.071516
     -3.248248     38.152256     38.152256     76.304512
     -3.238238     31.413630     31.413630     62.827260
     -3.228228     24.306002     24.306002     48.612004
     -3.218218     17.729911     17.729911     35.459821
     -3.208208     12.335327     12.335327     24.670655
     -3.198198      8.470474      8.470474     16.940948
     -3.188188      6.226477      6.226477     12.452955
     -3.178178      5.526126      5.526126     11.052253
     -3.168168      6.205671      6.205671     12.411342
     -3.158158      8.063898      8.063898     16.127797
     -3.148148     10.881799     10.881799     21.763598
     -3.138138     14.430303     14.430303     28.860606
     -3.128128     18.477130     18.477130     36.954259
     -3.118118     22.787853     22.787853     45.575707
     -3.108108     27.110175     27.110175     54.220349
     -3.098098     31.144824     31.144824     62.289648
     -3.088088     34.530661     34.530661     69.061322
     -3.078078     36.879348     36.879348     73.758696
     -3.068068     37.869244     37.869244     75.738487
     -3.058058     37.361236     37.361236     74.722472
     -3.048048     35.468427     35.468427     70.936855
     -3.038038     32.528035     32.528035     65.056069
     -3.028028     28.982626     28.982626     57.965253
     -3.018018     25.237165     25.237165     50.474331
     -3.008008     21.573165     21.573165     43.146330
     -2.997998     18.160415     18.160415     36.320829
     -2.987988     15.141763     15.141763     30.283527
     -2.977978     12.724031     12.724031     25.448062
     -2.967968     11.212517     11.212517     22.425033
     -2.957958     10.965459     10.965459     21.930917
     -2.947948     12.286953     12.286953     24.573906
     -2.937938     15.300252     15.300252     30.600504
     -2.927928     19.846883     19.846883     39.693766
     -2.917918     25.450050     25.450050     50.900100
     -2.907908     31.367670     31.367670     62.735340
     -2.897898     36.737549     36.737549     73.475098
     -2.887888     40.783558     40.783558     81.567116
     -2.877878     43.018258     43.018258     86.036516
     -2.867868     43.364602     43.364602     86.729205
     -2.857858     42.142067     42.142067     84.284134
     -2.847848     39.917032     39.917032     79.834065
     -2.837838     37.278890     37.278890     74.557780
     -2.827828     34.639455     34.639455     69.278909
     -2.817818     32.141998     32.141998     64.283996
     -2.807808     29.710719     29.710719     59.421439
     -2.797798     27.200128     27.200128     54.400256
     -2.787788     24.555125     24.555125     49.110250
     -2.777778     21.893288     21.893288     43.786576
     -2.767768     19.470101     19.470101     38.940202
     -2.757758     17.557245     17.557245     35.114491
     -2.747748     16.313458     16.313458     32.626916
     -2.737738     15.728068     15.728068     31.456135
     -2.727728     15.668702     15.668702     31.337404
     -2.717718     15.996227     15.996227     31.992454
     -2.707708     16.665090     16.665090     33.330180
     -2.697698     17.736482     17.736482     35.472964
     -2.687688     19.291765     19.291765     38.583530
     -2.677678     21.305960     21.305960     42.611920
     -2.667668     23.575460     23.575460     47.150920
     -2.657658     25.763072     25.763072     51.526143
     -2.647648     27.544618     27.544618     55.089235
     -2.637638     28.768441     28.768441     57.536882
     -2.627628     29.525327     29.525327     59.050654
     -2.617618     30.083630     30.083630     60.167261
     -2.607608     30.732257     30.732257     61.464514
     -2.597598     31.628862     31.628862     63.257723
     -2.587588     32.734758     32.734758     65.469515
     -2.577578     33.849977     33.849977     67.699954
     -2.567568     34.698862     34.698862     69.397724
     -2.557558     35.005590     35.005590     70.011180
     -2.547548     34.538127     34.538127     69.076254
     -2.537538     33.143531     33.143531     66.287062
     -2.527528     30.803325     30.803325     61.606651
     -2.517518     27.701802     27.701802     55.403604
     -2.507508     24.259946     24.259946     48.519891
     -2.497497     21.084264     21.084264     42.168529
     -2.487487     18.820913     18.820913     37.641826
     -2.477477     17.962305     17.962305     35.924610
     -2.467467     18.687251     18.687251     37.374503
     -2.457457     20.806782     20.806782     41.613564
     -2.447447     23.843024     23.843024     47.686048
     -2.437437     27.210665     27.210665     54.421329
     -2.427427     30.424789     30.424789     60.849578
     -2.417417     33.244817     33.244817     66.489634
     -2.407407     35.690100     35.690100     71.380200
     -2.397397     37.920530     37.920530     75.841060
     -2.387387     40.041071     40.041071     80.082142
     -2.377377     41.931171     41.931171     83.862341
     -2.367367     43.195220     43.195220     86.390440
     -2.357357     43.275722     43.275722     86.551444
     -2.347347     41.689212     41.689212     83.378425
     -2.337337     38.277160     38.277160     76.554321
     -2.327327     33.349503     33.349503     66.699006
     -2.317317     27.649372     27.649372     55.298744
     -2.307307     22.156074     22.156074     44.312148
     -2.297297     17.817003     17.817003     35.634006
     -2.287287     15.317448     15.317448     30.634895
     -2.277277     14.959275     14.959275     29.918549
     -2.267267     16.658982     16.658982     33.317964
     -2.257257     20.030570     20.030570     40.061139
     -2.247247     24.504872     24.504872     49.009745
     -2.237237     29.446078     29.446078     58.892156
     -2.227227     34.242169     34.242169     68.484338
     -2.217217     38.360641     38.360641     76.721282
     -2.207207     41.373952     41.373952     82.747903
     -2.197197     42.970940     42.970940     85.941881
     -2.187187     42.975098     42.975098     85.950195
     -2.177177     41.380266     41.380266     82.760532
     -2.167167     38.389704     38.389704     76.779409
     -2.157157     34.420926     34.420926     68.841853
     -2.147147     30.039124     30.039124     60.078248
     -2.137137     25.816495     25.816495     51.632990
     -2.127127     22.165966     22.165966     44.331931
     -2.117117     19.228295     19.228295     38.456589
     -2.107107     16.873045     16.873045     33.746091
     -2.097097     14.813303     14.813303     29.626607
     -2.087087     12.770940     12.770940     25.541879
     -2.077077     10.606229     10.606229     21.212458
     -2.067067      8.355339      8.355339     16.710677
     -2.057057      6.177102      6.177102     12.354205
     -2.047047      4.256680      4.256680      8.513361
     -2.037037      2.723052      2.723052      5.446104
     -2.027027      1.613690      1.613690      3.227380
     -2.017017      0.886273      0.886273      1.772546
     -2.007007      0.455910      0.455910      0.911819
     -1.996997      0.234241      0.234241      0.468482
     -1.986987      0.157336      0.157336      0.314672
     -1.976977      0.201355      0.201355      0.402710
     -1.966967      0.391141      0.391141      0.782282
     -1.956957      0.805836      0.805836      1.611672
     -1.946947      1.579946      1.579946      3.159892
     -1.936937      2.892194      2.892194      5.784388
     -1.926927      4.932436      4.932436      9.864872
     -1.916917      7.842234      7.842234     15.684469
     -1.906907     11.637730     11.637730     23.275460
     -1.896897     16.139456     16.139456     32.278912
     -1.886887     20.943683     20.943683     41.887365
     -1.876877     25.464799     25.464799     50.929597
     -1.866867     29.055443     29.055443     58.110887
     -1.856857     31.177361     31.177361     62.354722
     -1.846847     31.566029     31.566029     63.132058
     -1.836837     30.322182     30.322182     60.644363
     -1.826827     27.883379     27.883379     55.766758
     -1.816817     24.875443     24.875443     49.750887
     -1.806807     21.898246     21.898246     43.796493
     -1.796797     19.335013     19.335013     38.670026
     -1.786787     17.266565     17.266565     34.533131
     -1.776777     15.521267     15.521267     31.042535
     -1.766767     13.823915     13.823915     27.647831
     -1.756757     11.961262     11.961262     23.922524
     -1.746747      9.884213      9.884213     19.768427
     -1.736737      7.712082      7.712082     15.424164
     -1.726727      5.660977      5.660977     11.321954
     -1.716717      3.951570      3.951570      7.903140
     -1.706707      2.746308      2.746308      5.492617
     -1.696697      2.134246      2.134246      4.268492
     -1.686687      2.147898      2.147898      4.295796
     -1.676677      2.780974      2.780974      5.561948
     -1.666667      3.983711      3.983711      7.967422
     -1.656657      5.635566      5.635566     11.271132
     -1.646647      7.518499      7.518499     15.036998
     -1.636637      9.323436      9.323436     18.646872
     -1.626627     10.710194     10.710194     21.420387
