# EIG2DOS: Utility for SIESTA to obtain the electronic density of states
#  E. Artacho, Apr 1999, A. Garcia, Apr 2012
#  Nick R. Papior, Feb 2017
# ------------------------------------------
# Eigenvalues calculated from a non-polarized calculation
# Eigenvalues read from siesta.EIG
# Kpoint weights read from siesta.KP
# Using smearing parameter:   0.0500
# Using 1000 points in the energy range
# Selected bands: 1 to: 2981
# Emin, Emax in file for selected band(s):    -27.1902251    218.3596240
# Nbands, Nspin, Nk   =   2981     1     1
# E_F                 =    -4.2426 eV --> (shifted to ZERO)
# Broadening          =     0.0500 eV
#
#        E            N(up)  (=)   N(down)         Ntot
     -5.000000     33.215673     33.215673     66.431346
     -4.989990     37.357990     37.357990     74.715979
     -4.979980     41.004013     41.004013     82.008027
     -4.969970     43.593053     43.593053     87.186105
     -4.959960     44.682749     44.682749     89.365497
     -4.949950     44.093080     44.093080     88.186160
     -4.939940     41.976563     41.976563     83.953125
     -4.929930     38.798459     38.798459     77.596917
     -4.919920     35.251201     35.251201     70.502402
     -4.909910     32.141234     32.141234     64.282468
     -4.899900     30.268787     30.268787     60.537574
     -4.889890     30.293569     30.293569     60.587138
     -4.879880     32.575143     32.575143     65.150287
     -4.869870     37.010502     37.010502     74.021005
     -4.859860     42.940421     42.940421     85.880842
     -4.849850     49.212962     49.212962     98.425924
     -4.839840     54.443481     54.443481    108.886962
     -4.829830     57.410119     57.410119    114.820239
     -4.819820     57.433082     57.433082    114.866164
     -4.809810     54.570964     54.570964    109.141928
     -4.799800     49.548246     49.548246     99.096492
     -4.789790     43.459447     43.459447     86.918894
     -4.779780     37.396549     37.396549     74.793098
     -4.769770     32.159127     32.159127     64.318254
     -4.759760     28.135521     28.135521     56.271042
     -4.749750     25.345227     25.345227     50.690454
     -4.739740     23.568669     23.568669     47.137337
     -4.729730     22.484037     22.484037     44.968075
     -4.719720     21.763621     21.763621     43.527241
     -4.709710     21.121627     21.121627     42.243254
     -4.699700     20.331683     20.331683     40.663366
     -4.689690     19.240594     19.240594     38.481188
     -4.679680     17.797850     17.797850     35.595700
     -4.669670     16.101788     16.101788     32.203575
     -4.659660     14.441916     14.441916     28.883833
     -4.649650     13.305078     13.305078     26.610156
     -4.639640     13.318405     13.318405     26.636809
     -4.629630     15.121391     15.121391     30.242782
     -4.619620     19.183802     19.183802     38.367605
     -4.609610     25.609838     25.609838     51.219676
     -4.599600     33.989633     33.989633     67.979266
     -4.589590     43.369209     43.369209     86.738418
     -4.579580     52.393478     52.393478    104.786956
     -4.569570     59.622367     59.622367    119.244734
     -4.559560     63.939725     63.939725    127.879451
     -4.549550     64.908372     64.908372    129.816745
     -4.539540     62.918552     62.918552    125.837105
     -4.529530     59.049529     59.049529    118.099057
     -4.519520     54.686548     54.686548    109.373095
     -4.509510     51.045539     51.045539    102.091077
     -4.499499     48.796800     48.796800     97.593600
     -4.489489     47.926851     47.926851     95.853702
     -4.479479     47.864884     47.864884     95.729767
     -4.469469     47.786918     47.786918     95.573836
     -4.459459     46.951374     46.951374     93.902748
     -4.449449     44.934666     44.934666     89.869333
     -4.439439     41.705326     41.705326     83.410652
     -4.429429     37.556900     37.556900     75.113799
     -4.419419     32.971865     32.971865     65.943731
     -4.409409     28.491114     28.491114     56.982228
     -4.399399     24.626066     24.626066     49.252133
     -4.389389     21.804841     21.804841     43.609683
     -4.379379     20.323090     20.323090     40.646180
     -4.369369     20.285885     20.285885     40.571769
     -4.359359     21.561700     21.561700     43.123401
     -4.349349     23.790003     23.790003     47.580005
     -4.339339     26.468834     26.468834     52.937668
     -4.329329     29.105718     29.105718     58.211437
     -4.319319     31.374330     31.374330     62.748660
     -4.309309     33.209125     33.209125     66.418250
     -4.299299     34.795980     34.795980     69.591960
     -4.289289     36.460881     36.460881     72.921762
     -4.279279     38.497006     38.497006     76.994012
     -4.269269     40.991018     40.991018     81.982035
     -4.259259     43.713147     43.713147     87.426294
     -4.249249     46.124359     46.124359     92.248719
     -4.239239     47.522210     47.522210     95.044420
     -4.229229     47.292188     47.292188     94.584377
     -4.219219     45.170698     45.170698     90.341396
     -4.209209     41.397463     41.397463     82.794926
     -4.199199     36.671107     36.671107     73.342213
     -4.189189     31.914905     31.914905     63.829810
     -4.179179     27.958521     27.958521     55.917042
     -4.169169     25.283876     25.283876     50.567752
     -4.159159     23.943266     23.943266     47.886533
     -4.149149     23.663840     23.663840     47.327680
     -4.139139     24.062757     24.062757     48.125515
     -4.129129     24.856998     24.856998     49.713997
     -4.119119     25.969651     25.969651     51.939301
     -4.109109     27.491017     27.491017     54.982034
     -4.099099     29.521445     29.521445     59.042889
     -4.089089     31.980589     31.980589     63.961179
     -4.079079     34.493121     34.493121     68.986242
     -4.069069     36.434570     36.434570     72.869140
     -4.059059     37.142945     37.142945     74.285889
     -4.049049     36.206061     36.206061     72.412122
     -4.039039     33.679157     33.679157     67.358315
     -4.029029     30.114629     30.114629     60.229258
     -4.019019     26.385253     26.385253     52.770506
     -4.009009     23.392513     23.392513     46.785026
     -3.998999     21.803090     21.803090     43.606180
     -3.988989     21.921792     21.921792     43.843585
     -3.978979     23.719552     23.719552     47.439103
     -3.968969     26.953560     26.953560     53.907119
     -3.958959     31.291677     31.291677     62.583355
     -3.948949     36.387785     36.387785     72.775570
     -3.938939     41.910758     41.910758     83.821515
     -3.928929     47.561027     47.561027     95.122053
     -3.918919     53.096437     53.096437    106.192875
     -3.908909     58.353391     58.353391    116.706781
     -3.898899     63.228599     63.228599    126.457197
     -3.888889     67.604245     67.604245    135.208490
     -3.878879     71.244162     71.244162    142.488324
     -3.868869     73.726300     73.726300    147.452601
     -3.858859     74.476337     74.476337    148.952674
     -3.848849     72.922811     72.922811    145.845621
     -3.838839     68.727880     68.727880    137.455760
     -3.828829     61.996547     61.996547    123.993094
     -3.818819     53.361897     53.361897    106.723794
     -3.808809     43.891642     43.891642     87.783283
     -3.798799     34.838872     34.838872     69.677744
     -3.788789     27.326668     27.326668     54.653335
     -3.778779     22.078427     22.078427     44.156855
     -3.768769     19.277827     19.277827     38.555654
     -3.758759     18.586297     18.586297     37.172593
     -3.748749     19.293054     19.293054     38.586108
     -3.738739     20.542228     20.542228     41.084455
     -3.728729     21.574385     21.574385     43.148771
     -3.718719     21.926310     21.926310     43.852621
     -3.708709     21.544965     21.544965     43.089930
     -3.698699     20.787365     20.787365     41.574730
     -3.688689     20.299961     20.299961     40.599922
     -3.678679     20.800633     20.800633     41.601266
     -3.668669     22.819642     22.819642     45.639284
     -3.658659     26.481392     26.481392     52.962783
     -3.648649     31.409892     31.409892     62.819784
     -3.638639     36.805296     36.805296     73.610593
     -3.628629     41.672528     41.672528     83.345056
     -3.618619     45.115239     45.115239     90.230478
     -3.608609     46.578739     46.578739     93.157477
     -3.598599     45.955400     45.955400     91.910801
     -3.588589     43.537718     43.537718     87.075436
     -3.578579     39.871016     39.871016     79.742031
     -3.568569     35.580863     35.580863     71.161726
     -3.558559     31.228517     31.228517     62.457034
     -3.548549     27.213178     27.213178     54.426356
     -3.538539     23.723120     23.723120     47.446240
     -3.528529     20.740313     20.740313     41.480625
     -3.518519     18.103255     18.103255     36.206511
     -3.508509     15.614794     15.614794     31.229588
     -3.498498     13.155611     13.155611     26.311221
     -3.488488     10.754571     10.754571     21.509142
     -3.478478      8.586870      8.586870     17.173739
     -3.468468      6.907127      6.907127     13.814254
     -3.458458      5.951934      5.951934     11.903868
     -3.448448      5.850474      5.850474     11.700947
     -3.438438      6.569255      6.569255     13.138511
     -3.428428      7.903423      7.903423     15.806846
     -3.418418      9.519615      9.519615     19.039231
     -3.408408     11.047457     11.047457     22.094914
     -3.398398     12.200271     12.200271     24.400542
     -3.388388     12.884951     12.884951     25.769902
     -3.378378     13.253038     13.253038     26.506077
     -3.368368     13.663620     13.663620     27.327241
     -3.358358     14.567902     14.567902     29.135803
     -3.348348     16.360765     16.360765     32.721531
     -3.338338     19.252596     19.252596     38.505192
     -3.328328     23.193339     23.193339     46.386679
     -3.318318     27.852528     27.852528     55.705055
     -3.308308     32.649218     32.649218     65.298436
     -3.298298     36.836848     36.836848     73.673696
     -3.288288     39.654697     39.654697     79.309394
     -3.278278     40.533175     40.533175     81.066351
     -3.268268     39.289819     39.289819     78.579637
     -3.258258     36.219161     36.219161     72.438323
     -3.248248     32.006624     32.006624     64.013247
     -3.238238     27.483666     27.483666     54.967332
     -3.228228     23.334476     23.334476     46.668952
     -3.218218     19.896101     19.896101     39.792202
     -3.208208     17.139587     17.139587     34.279173
     -3.198198     14.816992     14.816992     29.633984
     -3.188188     12.676854     12.676854     25.353709
     -3.178178     10.636006     10.636006     21.272012
     -3.168168      8.844171      8.844171     17.688342
     -3.158158      7.645181      7.645181     15.290362
     -3.148148      7.478808      7.478808     14.957616
     -3.138138      8.764732      8.764732     17.529464
     -3.128128     11.785221     11.785221     23.570441
     -3.118118     16.569193     16.569193     33.138385
     -3.108108     22.794564     22.794564     45.589128
     -3.098098     29.754079     29.754079     59.508159
     -3.088088     36.438271     36.438271     72.876543
     -3.078078     41.752789     41.752789     83.505578
     -3.068068     44.815783     44.815783     89.631565
     -3.058058     45.218515     45.218515     90.437030
     -3.048048     43.128286     43.128286     86.256572
     -3.038038     39.182220     39.182220     78.364440
     -3.028028     34.226815     34.226815     68.453630
     -3.018018     29.035155     29.035155     58.070310
     -3.008008     24.132660     24.132660     48.265320
     -2.997998     19.787616     19.787616     39.575233
     -2.987988     16.127038     16.127038     32.254076
     -2.977978     13.281550     13.281550     26.563099
     -2.967968     11.470063     11.470063     22.940126
     -2.957958     10.986086     10.986086     21.972173
     -2.947948     12.102165     12.102165     24.204329
     -2.937938     14.939723     14.939723     29.879446
     -2.927928     19.356769     19.356769     38.713539
     -2.917918     24.897566     24.897566     49.795133
     -2.907908     30.833503     30.833503     61.667005
     -2.897898     36.300443     36.300443     72.600885
     -2.887888     40.503077     40.503077     81.006153
     -2.877878     42.921813     42.921813     85.843627
     -2.867868     43.443122     43.443122     86.886244
     -2.857858     42.355739     42.355739     84.711478
     -2.847848     40.209332     40.209332     80.418664
     -2.837838     37.594339     37.594339     75.188677
     -2.827828     34.938986     34.938986     69.877972
     -2.817818     32.410260     32.410260     64.820521
     -2.807808     29.952716     29.952716     59.905431
     -2.797798     27.429505     27.429505     54.859010
     -2.787788     24.780702     24.780702     49.561403
     -2.777778     22.111221     22.111221     44.222442
     -2.767768     19.665488     19.665488     39.330975
     -2.757758     17.712977     17.712977     35.425954
     -2.747748     16.419713     16.419713     32.839426
     -2.737738     15.785966     15.785966     31.571931
     -2.727728     15.686180     15.686180     31.372361
     -2.717718     15.979901     15.979901     31.959802
     -2.707708     16.614635     16.614635     33.229270
     -2.697698     17.645922     17.645922     35.291845
     -2.687688     19.156544     19.156544     38.313088
     -2.677678     21.129874     21.129874     42.259747
     -2.667668     23.371164     23.371164     46.742327
     -2.657658     25.544546     25.544546     51.089092
     -2.647648     27.316395     27.316395     54.632791
     -2.637638     28.519724     28.519724     57.039448
     -2.627628     29.234441     29.234441     58.468882
     -2.617618     29.731236     29.731236     59.462472
     -2.607608     30.315555     30.315555     60.631111
     -2.597598     31.168501     31.168501     62.337002
     -2.587588     32.271631     32.271631     64.543263
     -2.577578     33.435870     33.435870     66.871740
     -2.567568     34.387336     34.387336     68.774672
     -2.557558     34.845938     34.845938     69.691875
     -2.547548     34.569788     34.569788     69.139576
     -2.537538     33.386907     33.386907     66.773815
     -2.527528     31.247416     31.247416     62.494832
     -2.517518     28.295322     28.295322     56.590644
     -2.507508     24.914333     24.914333     49.828665
     -2.497497     21.691633     21.691633     43.383267
     -2.487487     19.281282     19.281282     38.562565
     -2.477477     18.208639     18.208639     36.417277
     -2.467467     18.697900     18.697900     37.395799
     -2.457457     20.601545     20.601545     41.203090
     -2.447447     23.466855     23.466855     46.933709
     -2.437437     26.713733     26.713733     53.427466
     -2.427427     29.847573     29.847573     59.695145
     -2.417417     32.613158     32.613158     65.226316
     -2.407407     35.020441     35.020441     70.040882
     -2.397397     37.232094     37.232094     74.464189
     -2.387387     39.369995     39.369995     78.739990
     -2.377377     41.340534     41.340534     82.681067
     -2.367367     42.774235     42.774235     85.548471
     -2.357357     43.123088     43.123088     86.246175
     -2.347347     41.882013     41.882013     83.764026
     -2.337337     38.836226     38.836226     77.672452
     -2.327327     34.218356     34.218356     68.436711
     -2.317317     28.700327     28.700327     57.400654
     -2.307307     23.223879     23.223879     46.447758
     -2.297297     18.745720     18.745720     37.491440
     -2.287287     15.999867     15.999867     31.999734
     -2.277277     15.353662     15.353662     30.707324
     -2.267267     16.780692     16.780692     33.561385
     -2.257257     19.927851     19.927851     39.855701
     -2.247247     24.233236     24.233236     48.466473
     -2.237237     29.053088     29.053088     58.106177
     -2.227227     33.767045     33.767045     67.534090
     -2.217217     37.844598     37.844598     75.689196
     -2.207207     40.871476     40.871476     81.742952
     -2.197197     42.551823     42.551823     85.103646
     -2.187187     42.712421     42.712421     85.424842
     -2.177177     41.328109     41.328109     82.656219
     -2.167167     38.561514     38.561514     77.123028
     -2.157157     34.780928     34.780928     69.561857
     -2.147147     30.513321     30.513321     61.026642
     -2.137137     26.319458     26.319458     52.638916
     -2.127127     22.630775     22.630775     45.261549
     -2.117117     19.625177     19.625177     39.250354
     -2.107107     17.208912     17.208912     34.417824
     -2.097097     15.115200     15.115200     30.230400
     -2.087087     13.064549     13.064549     26.129099
     -2.077077     10.901211     10.901211     21.802422
     -2.067067      8.643160      8.643160     17.286319
     -2.057057      6.439022      6.439022     12.878045
     -2.047047      4.474879      4.474879      8.949757
     -2.037037      2.888394      2.888394      5.776789
     -2.027027      1.727495      1.727495      3.454991
     -2.017017      0.957316      0.957316      1.914632
     -2.007007      0.495598      0.495598      0.991197
     -1.996997      0.252333      0.252333      0.504667
     -1.986987      0.158915      0.158915      0.317830
     -1.976977      0.184367      0.184367      0.368735
     -1.966967      0.343241      0.343241      0.686482
     -1.956957      0.699742      0.699742      1.399483
     -1.946947      1.367992      1.367992      2.735983
     -1.936937      2.503115      2.503115      5.006230
     -1.926927      4.275915      4.275915      8.551831
     -1.916917      6.827515      6.827515     13.655030
     -1.906907     10.209062     10.209062     20.418124
     -1.896897     14.322005     14.322005     28.644010
     -1.886887     18.881549     18.881549     37.763097
     -1.876877     23.425784     23.425784     46.851568
     -1.866867     27.384053     27.384053     54.768106
     -1.856857     30.200464     30.200464     60.400928
     -1.846847     31.484387     31.484387     62.968775
     -1.836837     31.136796     31.136796     62.273592
     -1.826827     29.394148     29.394148     58.788296
     -1.816817     26.754537     26.754537     53.509075
     -1.806807     23.802849     23.802849     47.605697
     -1.796797     21.007392     21.007392     42.014784
     -1.786787     18.582511     18.582511     37.165022
     -1.776777     16.479354     16.479354     32.958707
     -1.766767     14.496687     14.496687     28.993373
     -1.756757     12.440194     12.440194     24.880388
     -1.746747     10.242298     10.242298     20.484596
     -1.736737      7.991198      7.991198     15.982396
     -1.726727      5.877404      5.877404     11.754808
     -1.716717      4.108001      4.108001      8.216002
     -1.706707      2.841524      2.841524      5.683049
     -1.696697      2.167544      2.167544      4.335088
     -1.686687      2.120039      2.120039      4.240078
     -1.676677      2.694910      2.694910      5.389819
     -1.666667      3.846982      3.846982      7.693965
     -1.656657      5.463708      5.463708     10.927416
     -1.646647      7.336768      7.336768     14.673536
     -1.636637      9.164053      9.164053     18.328106
     -1.626627     10.604296     10.604296     21.208592
