# EIG2DOS: Utility for SIESTA to obtain the electronic density of states
#  E. Artacho, Apr 1999, A. Garcia, Apr 2012
#  Nick R. Papior, Feb 2017
# ------------------------------------------
# Eigenvalues calculated from a non-polarized calculation
# Eigenvalues read from siesta.EIG
# Kpoint weights read from siesta.KP
# Using smearing parameter:   0.0500
# Using 1000 points in the energy range
# Selected bands: 1 to: 2981
# Emin, Emax in file for selected band(s):    -27.1930693    218.3460980
# Nbands, Nspin, Nk   =   2981     1     1
# E_F                 =    -4.2609 eV --> (shifted to ZERO)
# Broadening          =     0.0500 eV
#
#        E            N(up)  (=)   N(down)         Ntot
     -5.000000     35.500889     35.500889     71.001777
     -4.989990     38.849671     38.849671     77.699341
     -4.979980     41.512044     41.512044     83.024088
     -4.969970     43.069852     43.069852     86.139704
     -4.959960     43.273930     43.273930     86.547860
     -4.949950     42.107760     42.107760     84.215519
     -4.939940     39.799469     39.799469     79.598937
     -4.929930     36.789540     36.789540     73.579080
     -4.919920     33.675307     33.675307     67.350615
     -4.909910     31.146264     31.146264     62.292528
     -4.899900     29.902531     29.902531     59.805062
     -4.889890     30.533526     30.533526     61.067052
     -4.879880     33.347954     33.347954     66.695908
     -4.869870     38.193343     38.193343     76.386686
     -4.859860     44.354660     44.354660     88.709320
     -4.849850     50.629673     50.629673    101.259347
     -4.839840     55.615217     55.615217    111.230434
     -4.829830     58.126208     58.126208    116.252415
     -4.819820     57.577151     57.577151    115.154301
     -4.809810     54.152444     54.152444    108.304887
     -4.799800     48.690492     48.690492     97.380983
     -4.789790     42.349678     42.349678     84.699355
     -4.779780     36.222047     36.222047     72.444094
     -4.769770     31.057745     31.057745     62.115490
     -4.759760     27.176288     27.176288     54.352577
     -4.749750     24.537284     24.537284     49.074567
     -4.739740     22.885591     22.885591     45.771182
     -4.729730     21.889758     21.889758     43.779516
     -4.719720     21.231424     21.231424     42.462848
     -4.709710     20.643157     20.643157     41.286313
     -4.699700     19.915964     19.915964     39.831927
     -4.689690     18.904830     18.904830     37.809660
     -4.679680     17.553545     17.553545     35.107090
     -4.669670     15.941017     15.941017     31.882033
     -4.659660     14.328057     14.328057     28.656114
     -4.649650     13.169930     13.169930     26.339859
     -4.639640     13.065283     13.065283     26.130566
     -4.629630     14.633729     14.633729     29.267459
     -4.619620     18.341221     18.341221     36.682442
     -4.609610     24.315777     24.315777     48.631553
     -4.599600     32.212058     32.212058     64.424117
     -4.589590     41.186313     41.186313     82.372626
     -4.579580     50.023357     50.023357    100.046714
     -4.569570     57.409470     57.409470    114.818940
     -4.559560     62.281941     62.281941    124.563883
     -4.549550     64.137847     64.137847    128.275694
     -4.539540     63.181989     63.181989    126.363978
     -4.529530     60.246421     60.246421    120.492842
     -4.519520     56.502237     56.502237    113.004475
     -4.509510     53.069091     53.069091    106.138181
     -4.499499     50.669714     50.669714    101.339429
     -4.489489     49.454772     49.454772     98.909545
     -4.479479     49.047329     49.047329     98.094657
     -4.469469     48.763117     48.763117     97.526233
     -4.459459     47.898208     47.898208     95.796416
     -4.449449     45.967975     45.967975     91.935949
     -4.439439     42.826048     42.826048     85.652096
     -4.429429     38.657839     38.657839     77.315677
     -4.419419     33.892661     33.892661     67.785322
     -4.409409     29.090324     29.090324     58.180648
     -4.399399     24.836739     24.836739     49.673479
     -4.389389     21.652856     21.652856     43.305712
     -4.379379     19.907876     19.907876     39.815752
     -4.369369     19.739933     19.739933     39.479867
     -4.359359     21.010660     21.010660     42.021319
     -4.349349     23.328650     23.328650     46.657301
     -4.339339     26.155778     26.155778     52.311557
     -4.329329     28.969017     28.969017     57.938033
     -4.319319     31.416526     31.416526     62.833051
     -4.309309     33.404378     33.404378     66.808755
     -4.299299     35.081356     35.081356     70.162713
     -4.289289     36.733044     36.733044     73.466088
     -4.279279     38.627893     38.627893     77.255786
     -4.269269     40.867508     40.867508     81.735016
     -4.259259     43.288961     43.288961     86.577923
     -4.249249     45.458184     45.458184     90.916367
     -4.239239     46.776449     46.776449     93.552899
     -4.229229     46.685180     46.685180     93.370360
     -4.219219     44.901253     44.901253     89.802505
     -4.209209     41.576645     41.576645     83.153291
     -4.199199     37.291194     37.291194     74.582387
     -4.189189     32.863757     32.863757     65.727513
     -4.179179     29.064757     29.064757     58.129513
     -4.169169     26.368188     26.368188     52.736376
     -4.159159     24.856701     24.856701     49.713401
     -4.149149     24.307083     24.307083     48.614165
     -4.139139     24.391079     24.391079     48.782158
     -4.129129     24.878232     24.878232     49.756464
     -4.119119     25.738769     25.738769     51.477537
     -4.109109     27.099787     27.099787     54.199575
     -4.099099     29.080276     29.080276     58.160551
     -4.089089     31.593603     31.593603     63.187206
     -4.079079     34.233887     34.233887     68.467774
     -4.069069     36.333190     36.333190     72.666379
     -4.059059     37.191132     37.191132     74.382264
     -4.049049     36.376718     36.376718     72.753435
     -4.039039     33.947406     33.947406     67.894812
     -4.029029     30.465958     30.465958     60.931917
     -4.019019     26.805548     26.805548     53.611095
     -4.009009     23.848474     23.848474     47.696947
     -3.998999     22.229831     22.229831     44.459662
     -3.988989     22.230633     22.230633     44.461266
     -3.978979     23.825383     23.825383     47.650765
     -3.968969     26.807431     26.807431     53.614863
     -3.958959     30.900233     30.900233     61.800467
     -3.948949     35.809372     35.809372     71.618745
     -3.938939     41.232076     41.232076     82.464152
     -3.928929     46.868141     46.868141     93.736281
     -3.918919     52.454198     52.454198    104.908395
     -3.908909     57.799592     57.799592    115.599183
     -3.898899     62.780012     62.780012    125.560024
     -3.888889     67.266657     67.266657    134.533313
     -3.878879     71.019217     71.019217    142.038433
     -3.868869     73.612290     73.612290    147.224581
     -3.858859     74.464794     74.464794    148.929588
     -3.848849     72.995333     72.995333    145.990667
     -3.838839     68.857083     68.857083    137.714166
     -3.828829     62.151997     62.151997    124.303993
     -3.818819     53.518493     53.518493    107.036986
     -3.808809     44.036135     44.036135     88.072271
     -3.798799     34.971146     34.971146     69.942292
     -3.788789     27.455208     27.455208     54.910416
     -3.778779     22.212398     22.212398     44.424795
     -3.768769     19.419668     19.419668     38.839337
     -3.758759     18.728358     18.728358     37.456715
     -3.748749     19.419784     19.419784     38.839567
     -3.738739     20.637031     20.637031     41.274062
     -3.728729     21.628268     21.628268     43.256535
     -3.718719     21.944601     21.944601     43.889203
     -3.708709     21.548866     21.548866     43.097733
     -3.698699     20.808647     20.808647     41.617294
     -3.688689     20.369567     20.369567     40.739134
     -3.678679     20.934705     20.934705     41.869409
     -3.668669     23.008664     23.008664     46.017327
     -3.658659     26.688295     26.688295     53.376590
     -3.648649     31.580045     31.580045     63.160090
     -3.638639     36.885789     36.885789     73.771577
     -3.628629     41.632805     41.632805     83.265609
     -3.618619     44.959459     44.959459     89.918918
     -3.608609     46.343992     46.343992     92.687984
     -3.598599     45.697175     45.697175     91.394350
     -3.588589     43.310202     43.310202     86.620403
     -3.578579     39.711152     39.711152     79.422304
     -3.568569     35.501402     35.501402     71.002805
     -3.558559     31.219849     31.219849     62.439697
     -3.548549     27.250335     27.250335     54.500671
     -3.538539     23.774300     23.774300     47.548601
     -3.528529     20.775051     20.775051     41.550102
     -3.518519     18.099643     18.099643     36.199285
     -3.508509     15.564962     15.564962     31.129924
     -3.498498     13.068064     13.068064     26.136129
     -3.488488     10.652233     10.652233     21.304466
     -3.478478      8.501064      8.501064     17.002129
     -3.468468      6.869161      6.869161     13.738322
     -3.458458      5.984395      5.984395     11.968790
     -3.448448      5.960023      5.960023     11.920047
     -3.438438      6.742377      6.742377     13.484754
     -3.428428      8.106723      8.106723     16.213445
     -3.418418      9.706095      9.706095     19.412189
     -3.408408     11.168670     11.168670     22.337340
     -3.398398     12.221559     12.221559     24.443118
     -3.388388     12.798686     12.798686     25.597372
     -3.378378     13.084881     13.084881     26.169761
     -3.368368     13.469348     13.469348     26.938695
     -3.358358     14.421591     14.421591     28.843182
     -3.348348     16.336886     16.336886     32.673771
     -3.338338     19.404734     19.404734     38.809467
     -3.328328     23.532464     23.532464     47.064927
     -3.318318     28.329196     28.329196     56.658392
     -3.308308     33.145736     33.145736     66.291472
     -3.298298     37.174320     37.174320     74.348639
     -3.288288     39.615256     39.615256     79.230511
     -3.278278     39.892713     39.892713     79.785427
     -3.268268     37.856114     37.856114     75.712228
     -3.258258     33.874992     33.874992     67.749984
     -3.248248     28.760438     28.760438     57.520876
     -3.238238     23.522877     23.522877     47.045755
     -3.228228     19.058749     19.058749     38.117498
     -3.218218     15.894863     15.894863     31.789726
     -3.208208     14.089056     14.089056     28.178113
     -3.198198     13.312050     13.312050     26.624101
     -3.188188     13.060235     13.060235     26.120469
     -3.178178     12.904912     12.904912     25.809824
     -3.168168     12.681070     12.681070     25.362140
     -3.158158     12.551181     12.551181     25.102362
     -3.148148     12.930517     12.930517     25.861035
     -3.138138     14.310132     14.310132     28.620264
     -3.128128     17.045176     17.045176     34.090351
     -3.118118     21.181918     21.181918     42.363836
     -3.108108     26.379840     26.379840     52.759681
     -3.098098     31.954491     31.954491     63.908983
     -3.088088     37.031258     37.031258     74.062516
     -3.078078     40.766573     40.766573     81.533146
     -3.068068     42.568695     42.568695     85.137389
     -3.058058     42.244386     42.244386     84.488772
     -3.048048     40.018713     40.018713     80.037425
     -3.038038     36.421863     36.421863     72.843725
     -3.028028     32.093097     32.093097     64.186194
     -3.018018     27.589353     27.589353     55.178706
     -3.008008     23.280279     23.280279     46.560559
     -2.997998     19.362030     19.362030     38.724060
     -2.987988     15.957412     15.957412     31.914825
     -2.977978     13.229227     13.229227     26.458453
     -2.967968     11.438096     11.438096     22.876192
     -2.957958     10.915041     10.915041     21.830083
     -2.947948     11.963162     11.963162     23.926324
     -2.937938     14.729316     14.729316     29.458632
     -2.927928     19.092938     19.092938     38.185876
     -2.917918     24.613930     24.613930     49.227860
     -2.907908     30.569761     30.569761     61.139522
     -2.897898     36.089765     36.089765     72.179530
     -2.887888     40.360136     40.360136     80.720272
     -2.877878     42.836606     42.836606     85.673211
     -2.867868     43.384480     43.384480     86.768960
     -2.857858     42.284677     42.284677     84.569354
     -2.847848     40.097619     40.097619     80.195238
     -2.837838     37.440452     37.440452     74.880903
     -2.827828     34.773866     34.773866     69.547733
     -2.817818     32.289382     32.289382     64.578764
     -2.807808     29.937100     29.937100     59.874200
     -2.797798     27.563418     27.563418     55.126835
     -2.787788     25.075126     25.075126     50.150253
     -2.777778     22.539196     22.539196     45.078391
     -2.767768     20.169708     20.169708     40.339415
     -2.757758     18.220926     18.220926     36.441851
     -2.747748     16.859530     16.859530     33.719061
     -2.737738     16.097923     16.097923     32.195847
     -2.727728     15.828390     15.828390     31.656779
     -2.717718     15.930309     15.930309     31.860619
     -2.707708     16.372577     16.372577     32.745154
     -2.697698     17.235065     17.235065     34.470130
     -2.687688     18.627981     18.627981     37.255962
     -2.677678     20.561356     20.561356     41.122712
     -2.667668     22.858194     22.858194     45.716388
     -2.657658     25.182333     25.182333     50.364666
     -2.647648     27.177156     27.177156     54.354312
     -2.637638     28.633876     28.633876     57.267753
     -2.627628     29.583563     29.583563     59.167126
     -2.617618     30.255167     30.255167     60.510335
     -2.607608     30.929449     30.929449     61.858898
     -2.597598     31.782494     31.782494     63.564988
     -2.587588     32.807408     32.807408     65.614815
     -2.577578     33.838161     33.838161     67.676322
     -2.567568     34.630647     34.630647     69.261294
     -2.557558     34.936530     34.936530     69.873059
     -2.547548     34.542089     34.542089     69.084177
     -2.537538     33.294277     33.294277     66.588554
     -2.527528     31.149389     31.149389     62.298778
     -2.517518     28.244983     28.244983     56.489965
     -2.507508     24.948755     24.948755     49.897510
     -2.497497     21.826024     21.826024     43.652048
     -2.487487     19.505795     19.505795     39.011590
     -2.477477     18.487374     18.487374     36.974749
     -2.467467     18.971543     18.971543     37.943087
     -2.457457     20.796058     20.796058     41.592115
     -2.447447     23.508845     23.508845     47.017690
     -2.437437     26.549318     26.549318     53.098637
     -2.427427     29.458586     29.458586     58.917172
     -2.417417     32.024992     32.024992     64.049984
     -2.407407     34.299381     34.299381     68.598763
     -2.397397     36.473817     36.473817     72.947635
     -2.387387     38.682426     38.682426     77.364851
     -2.377377     40.823655     40.823655     81.647310
     -2.367367     42.499234     42.499234     84.998469
     -2.357357     43.114957     43.114957     86.229914
     -2.347347     42.111733     42.111733     84.223467
     -2.337337     39.227525     39.227525     78.455050
     -2.327327     34.668494     34.668494     69.336988
     -2.317317     29.107502     29.107502     58.215005
     -2.307307     23.510660     23.510660     47.021320
     -2.297297     18.870827     18.870827     37.741654
     -2.287287     15.957298     15.957298     31.914596
     -2.277277     15.163735     15.163735     30.327470
     -2.267267     16.479089     16.479089     32.958177
     -2.257257     19.556740     19.556740     39.113481
     -2.247247     23.835797     23.835797     47.671595
     -2.237237     28.670943     28.670943     57.341886
     -2.227227     33.439401     33.439401     66.878803
     -2.217217     37.607456     37.607456     75.214912
     -2.207207     40.755207     40.755207     81.510415
     -2.197197     42.576405     42.576405     85.152810
     -2.187187     42.881557     42.881557     85.763113
     -2.177177     41.625235     41.625235     83.250470
     -2.167167     38.950722     38.950722     77.901444
     -2.157157     35.213802     35.213802     70.427604
     -2.147147     30.939756     30.939756     61.879511
     -2.137137     26.698573     26.698573     53.397147
     -2.127127     22.938078     22.938078     45.876157
     -2.117117     19.854044     19.854044     39.708088
     -2.107107     17.366943     17.366943     34.733885
     -2.097097     15.217849     15.217849     30.435698
     -2.087087     13.128822     13.128822     26.257644
     -2.077077     10.941390     10.941390     21.882779
     -2.067067      8.669122      8.669122     17.338244
     -2.057057      6.456578      6.456578     12.913156
     -2.047047      4.487054      4.487054      8.974108
     -2.037037      2.896761      2.896761      5.793522
     -2.027027      1.733081      1.733081      3.466161
     -2.017017      0.961078      0.961078      1.922156
     -2.007007      0.498669      0.498669      0.997337
     -1.996997      0.256232      0.256232      0.512465
     -1.986987      0.165745      0.165745      0.331491
     -1.976977      0.196540      0.196540      0.393081
     -1.966967      0.361524      0.361524      0.723048
     -1.956957      0.717384      0.717384      1.434768
     -1.946947      1.357922      1.357922      2.715844
     -1.936937      2.395964      2.395964      4.791928
     -1.926927      3.930454      3.930454      7.860909
     -1.916917      6.002658      6.002658     12.005316
     -1.906907      8.555659      8.555659     17.111318
     -1.896897     11.417437     11.417437     22.834875
     -1.886887     14.323152     14.323152     28.646305
     -1.876877     16.976904     16.976904     33.953807
     -1.866867     19.135014     19.135014     38.270028
     -1.856857     20.681913     20.681913     41.363827
     -1.846847     21.670071     21.670071     43.340141
     -1.836837     22.304189     22.304189     44.608378
     -1.826827     22.863911     22.863911     45.727822
     -1.816817     23.579900     23.579900     47.159800
     -1.806807     24.504907     24.504907     49.009815
     -1.796797     25.441551     25.441551     50.883102
     -1.786787     25.979750     25.979750     51.959501
     -1.776777     25.648763     25.648763     51.297525
     -1.766767     24.122534     24.122534     48.245069
     -1.756757     21.377422     21.377422     42.754844
     -1.746747     17.721494     17.721494     35.442988
     -1.736737     13.685541     13.685541     27.371082
     -1.726727      9.840189      9.840189     19.680378
     -1.716717      6.633095      6.633095     13.266189
     -1.706707      4.312254      4.312254      8.624508
     -1.696697      2.942900      2.942900      5.885800
     -1.686687      2.476644      2.476644      4.953288
     -1.676677      2.817084      2.817084      5.634168
     -1.666667      3.844931      3.844931      7.689861
     -1.656657      5.400301      5.400301     10.800601
     -1.646647      7.250191      7.250191     14.500383
     -1.636637      9.081032      9.081032     18.162064
     -1.626627     10.543977     10.543977     21.087955
