# EIG2DOS: Utility for SIESTA to obtain the electronic density of states
#  E. Artacho, Apr 1999, A. Garcia, Apr 2012
#  Nick R. Papior, Feb 2017
# ------------------------------------------
# Eigenvalues calculated from a non-polarized calculation
# Eigenvalues read from siesta.EIG
# Kpoint weights read from siesta.KP
# Using smearing parameter:   0.0500
# Using 1000 points in the energy range
# Selected bands: 1 to: 2981
# Emin, Emax in file for selected band(s):    -27.0849810    218.3513740
# Nbands, Nspin, Nk   =   2981     1     1
# E_F                 =    -4.2544 eV --> (shifted to ZERO)
# Broadening          =     0.0500 eV
#
#        E            N(up)  (=)   N(down)         Ntot
     -5.000000     33.694876     33.694876     67.389753
     -4.989990     37.582347     37.582347     75.164695
     -4.979980     41.020520     41.020520     82.041041
     -4.969970     43.440557     43.440557     86.881115
     -4.959960     44.413400     44.413400     88.826800
     -4.949950     43.773555     43.773555     87.547110
     -4.939940     41.674444     41.674444     83.348889
     -4.929930     38.564907     38.564907     77.129815
     -4.919920     35.110524     35.110524     70.221047
     -4.909910     32.092332     32.092332     64.184665
     -4.899900     30.296390     30.296390     60.592779
     -4.889890     30.382322     30.382322     60.764645
     -4.879880     32.718808     32.718808     65.437617
     -4.869870     37.211437     37.211437     74.422874
     -4.859860     43.199842     43.199842     86.399683
     -4.849850     49.517953     49.517953     99.035907
     -4.839840     54.759451     54.759451    109.518901
     -4.829830     57.685127     57.685127    115.370254
     -4.819820     57.613671     57.613671    115.227341
     -4.809810     54.621800     54.621800    109.243599
     -4.799800     49.465087     49.465087     98.930174
     -4.789790     43.268893     43.268893     86.537785
     -4.779780     37.143817     37.143817     74.287634
     -4.769770     31.891325     31.891325     63.782651
     -4.759760     27.888686     27.888686     55.777372
     -4.749750     25.139382     25.139382     50.278764
     -4.739740     23.409979     23.409979     46.819957
     -4.729730     22.370215     22.370215     44.740431
     -4.719720     21.688881     21.688881     43.377761
     -4.709710     21.079185     21.079185     42.158369
     -4.699700     20.313208     20.313208     40.626417
     -4.689690     19.232470     19.232470     38.464940
     -4.679680     17.774163     17.774163     35.548326
     -4.669670     16.014493     16.014493     32.028986
     -4.659660     14.209764     14.209764     28.419529
     -4.649650     12.804211     12.804211     25.608423
     -4.639640     12.378374     12.378374     24.756747
     -4.629630     13.530179     13.530179     27.060359
     -4.619620     16.704376     16.704376     33.408752
     -4.609610     22.009341     22.009341     44.018682
     -4.599600     29.081315     29.081315     58.162630
     -4.589590     37.065982     37.065982     74.131963
     -4.579580     44.768715     44.768715     89.537430
     -4.569570     50.966543     50.966543    101.933087
     -4.559560     54.792887     54.792887    109.585775
     -4.549550     56.044633     56.044633    112.089266
     -4.539540     55.266326     55.266326    110.532652
     -4.529530     53.550219     53.550219    107.100438
     -4.519520     52.117394     52.117394    104.234789
     -4.509510     51.849316     51.849316    103.698633
     -4.499499     52.965658     52.965658    105.931316
     -4.489489     54.978361     54.978361    109.956722
     -4.479479     56.926213     56.926213    113.852426
     -4.469469     57.771440     57.771440    115.542880
     -4.459459     56.780010     56.780010    113.560020
     -4.449449     53.736548     53.736548    107.473096
     -4.439439     48.940644     48.940644     97.881289
     -4.429429     43.037348     43.037348     86.074697
     -4.419419     36.794143     36.794143     73.588286
     -4.409409     30.925845     30.925845     61.851690
     -4.399399     26.007660     26.007660     52.015320
     -4.389389     22.451936     22.451936     44.903871
     -4.379379     20.497694     20.497694     40.995389
     -4.369369     20.183635     20.183635     40.367269
     -4.359359     21.319675     21.319675     42.639349
     -4.349349     23.499976     23.499976     46.999952
     -4.339339     26.188460     26.188460     52.376919
     -4.329329     28.864856     28.864856     57.729711
     -4.319319     31.177285     31.177285     62.354569
     -4.309309     33.035759     33.035759     66.071519
     -4.299299     34.605699     34.605699     69.211398
     -4.289289     36.203253     36.203253     72.406506
     -4.279279     38.130475     38.130475     76.260950
     -4.269269     40.506332     40.506332     81.012663
     -4.259259     43.152261     43.152261     86.304522
     -4.249249     45.582786     45.582786     91.165572
     -4.239239     47.127328     47.127328     94.254656
     -4.229229     47.161795     47.161795     94.323589
     -4.219219     45.368762     45.368762     90.737523
     -4.209209     41.908364     41.908364     83.816729
     -4.199199     37.405206     37.405206     74.810412
     -4.189189     32.741701     32.741701     65.483402
     -4.179179     28.749808     28.749808     57.499617
     -4.169169     25.946753     25.946753     51.893506
     -4.159159     24.431731     24.431731     48.863463
     -4.149149     23.970800     23.970800     47.941600
     -4.139139     24.203120     24.203120     48.406240
     -4.129129     24.853419     24.853419     49.706838
     -4.119119     25.847194     25.847194     51.694388
     -4.109109     27.279894     27.279894     54.559787
     -4.099099     29.262059     29.262059     58.524118
     -4.089089     31.724287     31.724287     63.448574
     -4.079079     34.295107     34.295107     68.590213
     -4.069069     36.340670     36.340670     72.681340
     -4.059059     37.176206     37.176206     74.352412
     -4.049049     36.359937     36.359937     72.719873
     -4.039039     33.920614     33.920614     67.841228
     -4.029029     30.395121     30.395121     60.790242
     -4.019019     26.653794     26.653794     53.307588
     -4.009009     23.605346     23.605346     47.210693
     -3.998999     21.927984     21.927984     43.855969
     -3.988989     21.938727     21.938727     43.877455
     -3.978979     23.620756     23.620756     47.241512
     -3.968969     26.744215     26.744215     53.488429
     -3.958959     30.990015     30.990015     61.980031
     -3.948949     36.022332     36.022332     72.044664
     -3.938939     41.514076     41.514076     83.028152
     -3.928929     47.162298     47.162298     94.324596
     -3.918919     52.717061     52.717061    105.434122
     -3.908909     58.008562     58.008562    116.017124
     -3.898899     62.933802     62.933802    125.867605
     -3.888889     67.381528     67.381528    134.763056
     -3.878879     71.122251     71.122251    142.244502
     -3.868869     73.732430     73.732430    147.464860
     -3.858859     74.623632     74.623632    149.247264
     -3.848849     73.200746     73.200746    146.401492
     -3.838839     69.101758     69.101758    138.203515
     -3.828829     62.416271     62.416271    124.832543
     -3.818819     53.775081     53.775081    107.550162
     -3.808809     44.254816     44.254816     88.509633
     -3.798799     35.123378     35.123378     70.246756
     -3.788789     27.519632     27.519632     55.039265
     -3.778779     22.181187     22.181187     44.362373
     -3.768769     19.303621     19.303621     38.607241
     -3.758759     18.557559     18.557559     37.115118
     -3.748749     19.237714     19.237714     38.475428
     -3.738739     20.488734     20.488734     40.977468
     -3.728729     21.546066     21.546066     43.092131
     -3.718719     21.936446     21.936446     43.872893
     -3.708709     21.594073     21.594073     43.188147
     -3.698699     20.863614     20.863614     41.727228
     -3.688689     20.382671     20.382671     40.765341
     -3.678679     20.865814     20.865814     41.731628
     -3.668669     22.845951     22.845951     45.691902
     -3.658659     26.454922     26.454922     52.909844
     -3.648649     31.326850     31.326850     62.653700
     -3.638639     36.672464     36.672464     73.344928
     -3.628629     41.506042     41.506042     83.012084
     -3.618619     44.938308     44.938308     89.876617
     -3.608609     46.418545     46.418545     92.837090
     -3.598599     45.839036     45.839036     91.678073
     -3.588589     43.487171     43.487171     86.974341
     -3.578579     39.898028     39.898028     79.796057
     -3.568569     35.683430     35.683430     71.366860
     -3.558559     31.390860     31.390860     62.781720
     -3.548549     27.409856     27.409856     54.819713
     -3.538539     23.925997     23.925997     47.851995
     -3.528529     20.925667     20.925667     41.851335
     -3.518519     18.256383     18.256383     36.512766
     -3.508509     15.730893     15.730893     31.461785
     -3.498498     13.237576     13.237576     26.475152
     -3.488488     10.809438     10.809438     21.618875
     -3.478478      8.622598      8.622598     17.245195
     -3.468468      6.930609      6.930609     13.861218
     -3.458458      5.968214      5.968214     11.936428
     -3.448448      5.862688      5.862688     11.725375
     -3.438438      6.578796      6.578796     13.157591
     -3.428428      7.910088      7.910088     15.820176
     -3.418418      9.521737      9.521737     19.043473
     -3.408408     11.042101     11.042101     22.084203
     -3.398398     12.183622     12.183622     24.367243
     -3.388388     12.852905     12.852905     25.705809
     -3.378378     13.201992     13.201992     26.403985
     -3.368368     13.591319     13.591319     27.182639
     -3.358358     14.474089     14.474089     28.948179
     -3.348348     16.247266     16.247266     32.494532
     -3.338338     19.122388     19.122388     38.244776
     -3.328328     23.047991     23.047991     46.095982
     -3.318318     27.686815     27.686815     55.373630
     -3.308308     32.440892     32.440892     64.881783
     -3.298298     36.529263     36.529263     73.058526
     -3.288288     39.132095     39.132095     78.264191
     -3.278278     39.594034     39.594034     79.188068
     -3.268268     37.631771     37.631771     75.263541
     -3.258258     33.454942     33.454942     66.909885
     -3.248248     27.727506     27.727506     55.455012
     -3.238238     21.370413     21.370413     42.740825
     -3.228228     15.289277     15.289277     30.578553
     -3.218218     10.145463     10.145463     20.290926
     -3.208208      6.255129      6.255129     12.510258
     -3.198198      3.627864      3.627864      7.255727
     -3.188188      2.094845      2.094845      4.189690
     -3.178178      1.456400      1.456400      2.912799
     -3.168168      1.595734      1.595734      3.191469
     -3.158158      2.534181      2.534181      5.068363
     -3.148148      4.422947      4.422947      8.845894
     -3.138138      7.474606      7.474606     14.949211
     -3.128128     11.845306     11.845306     23.690612
     -3.118118     17.495554     17.495554     34.991109
     -3.108108     24.079890     24.079890     48.159781
     -3.098098     30.926293     30.926293     61.852586
     -3.088088     37.146029     37.146029     74.292058
     -3.078078     41.861264     41.861264     83.722528
     -3.068068     44.473437     44.473437     88.946875
     -3.058058     44.857765     44.857765     89.715529
     -3.048048     43.387782     43.387782     86.775564
     -3.038038     40.767766     40.767766     81.535532
     -3.028028     37.745016     37.745016     75.490032
     -3.018018     34.836714     34.836714     69.673427
     -3.008008     32.199659     32.199659     64.399319
     -2.997998     29.696234     29.696234     59.392467
     -2.987988     27.107595     27.107595     54.215191
     -2.977978     24.372932     24.372932     48.745863
     -2.967968     21.729529     21.729529     43.459058
     -2.957958     19.688163     19.688163     39.376326
     -2.947948     18.861958     18.861958     37.723916
     -2.937938     19.728971     19.728971     39.457943
     -2.927928     22.426277     22.426277     44.852554
     -2.917918     26.651487     26.651487     53.302974
     -2.907908     31.705734     31.705734     63.411467
     -2.897898     36.666172     36.666172     73.332344
     -2.887888     40.635061     40.635061     81.270122
     -2.877878     42.984303     42.984303     85.968606
     -2.867868     43.510204     43.510204     87.020409
     -2.857858     42.441546     42.441546     84.883093
     -2.847848     40.300118     40.300118     80.600237
     -2.837838     37.674679     37.674679     75.349358
     -2.827828     35.006788     35.006788     70.013575
     -2.817818     32.478854     32.478854     64.957708
     -2.807808     30.042668     30.042668     60.085335
     -2.797798     27.556280     27.556280     55.112560
     -2.787788     24.945112     24.945112     49.890225
     -2.777778     22.297214     22.297214     44.594428
     -2.767768     19.845370     19.845370     39.690740
     -2.757758     17.856073     17.856073     35.712145
     -2.747748     16.498874     16.498874     32.997747
     -2.737738     15.778376     15.778376     31.556752
     -2.727728     15.569464     15.569464     31.138928
     -2.717718     15.728963     15.728963     31.457927
     -2.707708     16.205819     16.205819     32.411638
     -2.697698     17.071195     17.071195     34.142390
     -2.687688     18.442885     18.442885     36.885770
     -2.677678     20.352269     20.352269     40.704538
     -2.667668     22.647039     22.647039     45.294078
     -2.657658     25.005483     25.005483     50.010967
     -2.647648     27.066148     27.066148     54.132296
     -2.637638     28.597478     28.597478     57.194956
     -2.627628     29.601502     29.601502     59.203004
     -2.617618     30.287248     30.287248     60.574497
     -2.607608     30.934821     30.934821     61.869642
     -2.597598     31.738278     31.738278     63.476555
     -2.587588     32.717312     32.717312     65.434623
     -2.577578     33.728525     33.728525     67.457050
     -2.567568     34.538435     34.538435     69.076870
     -2.557558     34.896368     34.896368     69.792736
     -2.547548     34.576891     34.576891     69.153782
     -2.537538     33.409715     33.409715     66.819429
     -2.527528     31.330595     31.330595     62.661191
     -2.517518     28.455499     28.455499     56.910998
     -2.507508     25.134363     25.134363     50.268726
     -2.497497     21.926303     21.926303     43.852606
     -2.487487     19.472872     19.472872     38.945744
     -2.477477     18.306307     18.306307     36.612614
     -2.467467     18.673635     18.673635     37.347270
     -2.457457     20.457574     20.457574     40.915147
     -2.447447     23.233132     23.233132     46.466263
     -2.437437     26.437673     26.437673     52.875347
     -2.427427     29.580558     29.580558     59.161116
     -2.417417     32.399003     32.399003     64.798007
     -2.407407     34.889531     34.889531     69.779062
     -2.397397     37.201610     37.201610     74.403221
     -2.387387     39.447189     39.447189     78.894378
     -2.377377     41.524710     41.524710     83.049421
     -2.367367     43.055144     43.055144     86.110287
     -2.357357     43.477388     43.477388     86.954776
     -2.347347     42.272195     42.272195     84.544390
     -2.337337     39.215441     39.215441     78.430881
     -2.327327     34.540590     34.540590     69.081180
     -2.317317     28.931367     28.931367     57.862735
     -2.307307     23.347677     23.347677     46.695355
     -2.297297     18.763656     18.763656     37.527311
     -2.287287     15.924671     15.924671     31.849342
     -2.277277     15.202318     15.202318     30.404635
     -2.267267     16.570148     16.570148     33.140297
     -2.257257     19.674800     19.674800     39.349601
     -2.247247     23.956616     23.956616     47.913231
     -2.237237     28.776683     28.776683     57.553366
     -2.227227     33.519859     33.519859     67.039719
     -2.217217     37.657825     37.657825     75.315649
     -2.207207     40.772408     40.772408     81.544815
     -2.197197     42.556479     42.556479     85.112958
     -2.187187     42.819589     42.819589     85.639177
     -2.177177     41.517518     41.517518     83.035035
     -2.167167     38.797681     38.797681     77.595363
     -2.157157     35.022125     35.022125     70.044251
     -2.147147     30.722890     30.722890     61.445780
     -2.137137     26.475477     26.475477     52.950954
     -2.127127     22.730469     22.730469     45.460938
     -2.117117     19.682554     19.682554     39.365107
     -2.107107     17.246908     17.246908     34.493815
     -2.097097     15.155875     15.155875     30.311751
     -2.087087     13.121408     13.121408     26.242816
     -2.077077     10.976341     10.976341     21.952682
     -2.067067      8.729381      8.729381     17.458763
     -2.057057      6.525017      6.525017     13.050034
     -2.047047      4.550414      4.550414      9.100828
     -2.037037      2.947514      2.947514      5.895028
     -2.027027      1.769073      1.769073      3.538145
     -2.017017      0.983711      0.983711      1.967422
     -2.007007      0.510640      0.510640      1.021280
     -1.996997      0.259531      0.259531      0.519063
     -1.986987      0.160090      0.160090      0.320179
     -1.976977      0.178122      0.178122      0.356244
     -1.966967      0.322073      0.322073      0.644146
     -1.956957      0.644023      0.644023      1.288047
     -1.946947      1.234784      1.234784      2.469569
     -1.936937      2.208488      2.208488      4.416976
     -1.926927      3.672159      3.672159      7.344318
     -1.916917      5.682046      5.682046     11.364092
     -1.906907      8.198661      8.198661     16.397322
     -1.896897     11.060103     11.060103     22.120207
     -1.886887     13.991396     13.991396     27.982791
     -1.876877     16.654743     16.654743     33.309486
     -1.866867     18.728367     18.728367     37.456733
     -1.856857     19.989821     19.989821     39.979642
     -1.846847     20.378648     20.378648     40.757296
     -1.836837     20.019799     20.019799     40.039598
     -1.826827     19.198132     19.198132     38.396264
     -1.816817     18.284713     18.284713     36.569425
     -1.806807     17.630494     17.630494     35.260988
     -1.796797     17.459684     17.459684     34.919368
     -1.786787     17.802372     17.802372     35.604745
     -1.776777     18.493094     18.493094     36.986187
     -1.766767     19.232688     19.232688     38.465377
     -1.756757     19.683790     19.683790     39.367580
     -1.746747     19.563251     19.563251     39.126503
     -1.736737     18.708162     18.708162     37.416325
     -1.726727     17.110072     17.110072     34.220144
     -1.716717     14.919993     14.919993     29.839986
     -1.706707     12.424862     12.424862     24.849724
     -1.696697      9.995012      9.995012     19.990023
     -1.686687      8.008537      8.008537     16.017074
     -1.676677      6.767778      6.767778     13.535557
     -1.666667      6.427371      6.427371     12.854741
     -1.656657      6.950756      6.950756     13.901513
     -1.646647      8.107383      8.107383     16.214767
     -1.636637      9.518466      9.518466     19.036932
     -1.626627     10.750879     10.750879     21.501758
