# EIG2DOS: Utility for SIESTA to obtain the electronic density of states
#  E. Artacho, Apr 1999, A. Garcia, Apr 2012
#  Nick R. Papior, Feb 2017
# ------------------------------------------
# Eigenvalues calculated from a non-polarized calculation
# Eigenvalues read from siesta.EIG
# Kpoint weights read from siesta.KP
# Using smearing parameter:   0.0500
# Using 1000 points in the energy range
# Selected bands: 1 to: 2981
# Emin, Emax in file for selected band(s):    -27.2674900    218.3727760
# Nbands, Nspin, Nk   =   2981     1     1
# E_F                 =    -4.2251 eV --> (shifted to ZERO)
# Broadening          =     0.0500 eV
#
#        E            N(up)  (=)   N(down)         Ntot
     -5.000000     35.759776     35.759776     71.519551
     -4.989990     39.943368     39.943368     79.886736
     -4.979980     43.222172     43.222172     86.444345
     -4.969970     45.049971     45.049971     90.099942
     -4.959960     45.126896     45.126896     90.253793
     -4.949950     43.497607     43.497607     86.995215
     -4.939940     40.545943     40.545943     81.091886
     -4.929930     36.909177     36.909177     73.818354
     -4.919920     33.361107     33.361107     66.722214
     -4.909910     30.699393     30.699393     61.398787
     -4.899900     29.636533     29.636533     59.273065
     -4.889890     30.671655     30.671655     61.343310
     -4.879880     33.938209     33.938209     67.876418
     -4.869870     39.072447     39.072447     78.144893
     -4.859860     45.187927     45.187927     90.375854
     -4.849850     51.027208     51.027208    102.054416
     -4.839840     55.284493     55.284493    110.568987
     -4.829830     56.993522     56.993522    113.987044
     -4.819820     55.819761     55.819761    111.639523
     -4.809810     52.128178     52.128178    104.256355
     -4.799800     46.803782     46.803782     93.607565
     -4.789790     40.918827     40.918827     81.837654
     -4.779780     35.399663     35.399663     70.799327
     -4.769770     30.820715     30.820715     61.641429
     -4.759760     27.370562     27.370562     54.741123
     -4.749750     24.951937     24.951937     49.903874
     -4.739740     23.335770     23.335770     46.671541
     -4.729730     22.295098     22.295098     44.590196
     -4.719720     21.676921     21.676921     43.353841
     -4.709710     21.406037     21.406037     42.812073
     -4.699700     21.442838     21.442838     42.885676
     -4.689690     21.732876     21.732876     43.465752
     -4.679680     22.186029     22.186029     44.372057
     -4.669670     22.705903     22.705903     45.411805
     -4.659660     23.261480     23.261480     46.522959
     -4.649650     23.965073     23.965073     47.930145
     -4.639640     25.105557     25.105557     50.211113
     -4.629630     27.092188     27.092188     54.184376
     -4.619620     30.296905     30.296905     60.593810
     -4.609610     34.837488     34.837488     69.674976
     -4.599600     40.398111     40.398111     80.796222
     -4.589590     46.199900     46.199900     92.399801
     -4.579580     51.183598     51.183598    102.367196
     -4.569570     54.361223     54.361223    108.722445
     -4.559560     55.191524     55.191524    110.383049
     -4.549550     53.802802     53.802802    107.605604
     -4.539540     50.952786     50.952786    101.905572
     -4.529530     47.741732     47.741732     95.483465
     -4.519520     45.208125     45.208125     90.416251
     -4.509510     43.977820     43.977820     87.955641
     -4.499499     44.096590     44.096590     88.193181
     -4.489489     45.085851     45.085851     90.171703
     -4.479479     46.169918     46.169918     92.339836
     -4.469469     46.567592     46.567592     93.135183
     -4.459459     45.735967     45.735967     91.471935
     -4.449449     43.493198     43.493198     86.986396
     -4.439439     40.007627     40.007627     80.015255
     -4.429429     35.694881     35.694881     71.389762
     -4.419419     31.088643     31.088643     62.177287
     -4.409409     26.737112     26.737112     53.474225
     -4.399399     23.138982     23.138982     46.277964
     -4.389389     20.698665     20.698665     41.397331
     -4.379379     19.674936     19.674936     39.349871
     -4.369369     20.122142     20.122142     40.244283
     -4.359359     21.855204     21.855204     43.710409
     -4.349349     24.478337     24.478337     48.956673
     -4.339339     27.490820     27.490820     54.981639
     -4.329329     30.438020     30.438020     60.876040
     -4.319319     33.044421     33.044421     66.088842
     -4.309309     35.269945     35.269945     70.539890
     -4.299299     37.267107     37.267107     74.534214
     -4.289289     39.260235     39.260235     78.520470
     -4.279279     41.395855     41.395855     82.791710
     -4.269269     43.619289     43.619289     87.238578
     -4.259259     45.624481     45.624481     91.248962
     -4.249249     46.907556     46.907556     93.815111
     -4.239239     46.925420     46.925420     93.850841
     -4.229229     45.315898     45.315898     90.631796
     -4.219219     42.091546     42.091546     84.183092
     -4.209209     37.708396     37.708396     75.416792
     -4.199199     32.956243     32.956243     65.912487
     -4.189189     28.703974     28.703974     57.407949
     -4.179179     25.611787     25.611787     51.223575
     -4.169169     23.941953     23.941953     47.883907
     -4.159159     23.548349     23.548349     47.096699
     -4.149149     24.034228     24.034228     48.068457
     -4.139139     24.988467     24.988467     49.976934
     -4.129129     26.179825     26.179825     52.359649
     -4.119119     27.614986     27.614986     55.229973
     -4.109109     29.434559     29.434559     58.869117
     -4.099099     31.703994     31.703994     63.407988
     -4.089089     34.218588     34.218588     68.437176
     -4.079079     36.448188     36.448188     72.896376
     -4.069069     37.682235     37.682235     75.364470
     -4.059059     37.323898     37.323898     74.647796
     -4.049049     35.186827     35.186827     70.373655
     -4.039039     31.634161     31.634161     63.268322
     -4.029029     27.482527     27.482527     54.965055
     -4.019019     23.723005     23.723005     47.446011
     -4.009009     21.203352     21.203352     42.406705
     -3.998999     20.417094     20.417094     40.834188
     -3.988989     21.465446     21.465446     42.930891
     -3.978979     24.157876     24.157876     48.315751
     -3.968969     28.159664     28.159664     56.319328
     -3.958959     33.104950     33.104950     66.209901
     -3.948949     38.648201     38.648201     77.296401
     -3.938939     44.477871     44.477871     88.955742
     -3.928929     50.327315     50.327315    100.654631
     -3.918919     55.990924     55.990924    111.981848
     -3.908909     61.321271     61.321271    122.642543
     -3.898899     66.180811     66.180811    132.361622
     -3.888889     70.355404     70.355404    140.710808
     -3.878879     73.479363     73.479363    146.958726
     -3.868869     75.035894     75.035894    150.071788
     -3.858859     74.466753     74.466753    148.933506
     -3.848849     71.366592     71.366592    142.733184
     -3.838839     65.685635     65.685635    131.371271
     -3.828829     57.849003     57.849003    115.698006
     -3.818819     48.730490     48.730490     97.460980
     -3.808809     39.477461     39.477461     78.954923
     -3.798799     31.242862     31.242862     62.485724
     -3.788789     24.913580     24.913580     49.827161
     -3.778779     20.920118     20.920118     41.840236
     -3.768769     19.178062     19.178062     38.356123
     -3.758759     19.166216     19.166216     38.332433
     -3.748749     20.107970     20.107970     40.215941
     -3.738739     21.201201     21.201201     42.402402
     -3.728729     21.837574     21.837574     43.675148
     -3.718719     21.759500     21.759500     43.519001
     -3.708709     21.117663     21.117663     42.235327
     -3.698699     20.412199     20.412199     40.824398
     -3.688689     20.326427     20.326427     40.652854
     -3.678679     21.492151     21.492151     42.984301
     -3.668669     24.253286     24.253286     48.506573
     -3.658659     28.507306     28.507306     57.014612
     -3.648649     33.688310     33.688310     67.376620
     -3.638639     38.908228     38.908228     77.816456
     -3.628629     43.209110     43.209110     86.418221
     -3.618619     45.831233     45.831233     91.662466
     -3.608609     46.397767     46.397767     92.795533
     -3.598599     44.961179     44.961179     89.922359
     -3.588589     41.921727     41.921727     83.843455
     -3.578579     37.874362     37.874362     75.748724
     -3.568569     33.445879     33.445879     66.891757
     -3.558559     29.160951     29.160951     58.321901
     -3.548549     25.352678     25.352678     50.705357
     -3.538539     22.126671     22.126671     44.253342
     -3.528529     19.388211     19.388211     38.776421
     -3.518519     16.930966     16.930966     33.861931
     -3.508509     14.559800     14.559800     29.119601
     -3.498498     12.198190     12.198190     24.396380
     -3.488488      9.934046      9.934046     19.868092
     -3.478478      7.988074      7.988074     15.976148
     -3.468468      6.625511      6.625511     13.251021
     -3.458458      6.051916      6.051916     12.103832
     -3.448448      6.330483      6.330483     12.660967
     -3.438438      7.343723      7.343723     14.687446
     -3.428428      8.809828      8.809828     17.619657
     -3.418418     10.355072     10.355072     20.710145
     -3.408408     11.630429     11.630429     23.260858
     -3.398398     12.440685     12.440685     24.881370
     -3.388388     12.838433     12.838433     25.676867
     -3.378378     13.139777     13.139777     26.279554
     -3.368368     13.847728     13.847728     27.695455
     -3.358358     15.507781     15.507781     31.015562
     -3.348348     18.543627     18.543627     37.087255
     -3.338338     23.117134     23.117134     46.234268
     -3.328328     29.036628     29.036628     58.073256
     -3.318318     35.724414     35.724414     71.448828
     -3.308308     42.259598     42.259598     84.519195
     -3.298298     47.520074     47.520074     95.040148
     -3.288288     50.428895     50.428895    100.857790
     -3.278278     50.255956     50.255956    100.511912
     -3.268268     46.867318     46.867318     93.734635
     -3.258258     40.804354     40.804354     81.608708
     -3.248248     33.139636     33.139636     66.279273
     -3.238238     25.164161     25.164161     50.328322
     -3.228228     18.040721     18.040721     36.081443
     -3.218218     12.558610     12.558610     25.117220
     -3.208208      9.052658      9.052658     18.105316
     -3.198198      7.461588      7.461588     14.923175
     -3.188188      7.453937      7.453937     14.907873
     -3.178178      8.560316      8.560316     17.120632
     -3.168168     10.290102     10.290102     20.580203
     -3.158158     12.237036     12.237036     24.474071
     -3.148148     14.171381     14.171381     28.342761
     -3.138138     16.090313     16.090313     32.180626
     -3.128128     18.186425     18.186425     36.372850
     -3.118118     20.719498     20.719498     41.438997
     -3.108108     23.830992     23.830992     47.661985
     -3.098098     27.388209     27.388209     54.776418
     -3.088088     30.947667     30.947667     61.895335
     -3.078078     33.873496     33.873496     67.746992
     -3.068068     35.563359     35.563359     71.126718
     -3.058058     35.671719     35.671719     71.343438
     -3.048048     34.219383     34.219383     68.438766
     -3.038038     31.542809     31.542809     63.085617
     -3.028028     28.127211     28.127211     56.254421
     -3.018018     24.426705     24.426705     48.853409
     -3.008008     20.766810     20.766810     41.533620
     -2.997998     17.360516     17.360516     34.721032
     -2.987988     14.396407     14.396407     28.792815
     -2.977978     12.122838     12.122838     24.245677
     -2.967968     10.868786     10.868786     21.737572
     -2.957958     10.986713     10.986713     21.973426
     -2.947948     12.742371     12.742371     25.484742
     -2.937938     16.194244     16.194244     32.388488
     -2.927928     21.105535     21.105535     42.211069
     -2.917918     26.924399     26.924399     53.848799
     -2.907908     32.855272     32.855272     65.710544
     -2.897898     38.020153     38.020153     76.040307
     -2.887888     41.673465     41.673465     83.346930
     -2.877878     43.400924     43.400924     86.801847
     -2.867868     43.223497     43.223497     86.446994
     -2.857858     41.556060     41.556060     83.112119
     -2.847848     39.030289     39.030289     78.060578
     -2.837838     36.254790     36.254790     72.509581
     -2.827828     33.617416     33.617416     67.234831
     -2.817818     31.214406     31.214406     62.428812
     -2.807808     28.926114     28.926114     57.852227
     -2.797798     26.584130     26.584130     53.168259
     -2.787788     24.131342     24.131342     48.262685
     -2.777778     21.688838     21.688838     43.377676
     -2.767768     19.503421     19.503421     39.006842
     -2.757758     17.820926     17.820926     35.641853
     -2.747748     16.770986     16.770986     33.541973
     -2.737738     16.334637     16.334637     32.669274
     -2.727728     16.406732     16.406732     32.813464
     -2.717718     16.899285     16.899285     33.798569
     -2.707708     17.804041     17.804041     35.608081
     -2.697698     19.163564     19.163564     38.327128
     -2.687688     20.970376     20.970376     41.940752
     -2.677678     23.073565     23.073565     46.147131
     -2.667668     25.175905     25.175905     50.351810
     -2.657658     26.944432     26.944432     53.888863
     -2.647648     28.174085     28.174085     56.348171
     -2.637638     28.898585     28.898585     57.797171
     -2.627628     29.371469     29.371469     58.742939
     -2.617618     29.924606     29.924606     59.849213
     -2.607608     30.790268     30.790268     61.580537
     -2.597598     31.989157     31.989157     63.978314
     -2.587588     33.333021     33.333021     66.666042
     -2.577578     34.512980     34.512980     69.025960
     -2.567568     35.203739     35.203739     70.407479
     -2.557558     35.133500     35.133500     70.267001
     -2.547548     34.120665     34.120665     68.241330
     -2.537538     32.109637     32.109637     64.219274
     -2.527528     29.222683     29.222683     58.445365
     -2.517518     25.802789     25.802789     51.605578
     -2.507508     22.397704     22.397704     44.795408
     -2.497497     19.654394     19.654394     39.308788
     -2.487487     18.143915     18.143915     36.287830
     -2.477477     18.182846     18.182846     36.365692
     -2.467467     19.728939     19.728939     39.457878
     -2.457457     22.400347     22.400347     44.800694
     -2.447447     25.615867     25.615867     51.231734
     -2.437437     28.802150     28.802150     57.604301
     -2.427427     31.583866     31.583866     63.167733
     -2.417417     33.876746     33.876746     67.753493
     -2.407407     35.841757     35.841757     71.683514
     -2.397397     37.718074     37.718074     75.436149
     -2.387387     39.609897     39.609897     79.219795
     -2.377377     41.331816     41.331816     82.663631
     -2.367367     42.400958     42.400958     84.801916
     -2.357357     42.200398     42.200398     84.400796
     -2.347347     40.251606     40.251606     80.503213
     -2.337337     36.469556     36.469556     72.939113
     -2.327327     31.274516     31.274516     62.549033
     -2.317317     25.505698     25.505698     51.011395
     -2.307307     20.182075     20.182075     40.364151
     -2.297297     16.222902     16.222902     32.445804
     -2.287287     14.238523     14.238523     28.477045
     -2.277277     14.445292     14.445292     28.890584
     -2.267267     16.692884     16.692884     33.385769
     -2.257257     20.556526     20.556526     41.113052
     -2.247247     25.447158     25.447158     50.894315
     -2.237237     30.711237     30.711237     61.422473
     -2.227227     35.709326     35.709326     71.418652
     -2.217217     39.872549     39.872549     79.745098
     -2.207207     42.742130     42.742130     85.484261
     -2.197197     44.002331     44.002331     88.004662
     -2.187187     43.516861     43.516861     87.033723
     -2.177177     41.367350     41.367350     82.734700
     -2.167167     37.872537     37.872537     75.745073
     -2.157157     33.554302     33.554302     67.108604
     -2.147147     29.029702     29.029702     58.059404
     -2.137137     24.848482     24.848482     49.696963
     -2.127127     21.339078     21.339078     42.678155
     -2.117117     18.537870     18.537870     37.075739
     -2.107107     16.239773     16.239773     32.479546
     -2.097097     14.143008     14.143008     28.286016
     -2.087087     12.010470     12.010470     24.020939
     -2.077077      9.768078      9.768078     19.536156
     -2.067067      7.504891      7.504891     15.009782
     -2.057057      5.397217      5.397217     10.794433
     -2.047047      3.612369      3.612369      7.224738
     -2.037037      2.242652      2.242652      4.485304
     -2.027027      1.289813      1.289813      2.579627
     -2.017017      0.689573      0.689573      1.379146
     -2.007007      0.351946      0.351946      0.703893
     -1.996997      0.197123      0.197123      0.394245
     -1.986987      0.178929      0.178929      0.357859
     -1.976977      0.298037      0.298037      0.596074
     -1.966967      0.609884      0.609884      1.219768
     -1.956957      1.228430      1.228430      2.456860
     -1.946947      2.320093      2.320093      4.640185
     -1.936937      4.077720      4.077720      8.155440
     -1.926927      6.667112      6.667112     13.334224
     -1.916917     10.150563     10.150563     20.301127
     -1.906907     14.409678     14.409678     28.819356
     -1.896897     19.103276     19.103276     38.206551
     -1.886887     23.693944     23.693944     47.387889
     -1.876877     27.553947     27.553947     55.107895
     -1.866867     30.125920     30.125920     60.251839
     -1.856857     31.083948     31.083948     62.167896
     -1.846847     30.432832     30.432832     60.865665
     -1.836837     28.502927     28.502927     57.005855
     -1.826827     25.837089     25.837089     51.674178
     -1.816817     23.009186     23.009186     46.018372
     -1.806807     20.443213     20.443213     40.886427
     -1.796797     18.304412     18.304412     36.608825
     -1.786787     16.503954     16.503954     33.007908
     -1.776777     14.806929     14.806929     29.613857
     -1.766767     12.985027     12.985027     25.970055
     -1.756757     10.938086     10.938086     21.876172
     -1.746747      8.733139      8.733139     17.466277
     -1.736737      6.559510      6.559510     13.119020
     -1.726727      4.641620      4.641620      9.283240
     -1.716717      3.162912      3.162912      6.325823
     -1.706707      2.233524      2.233524      4.467047
     -1.696697      1.900071      1.900071      3.800142
     -1.686687      2.171044      2.171044      4.342088
     -1.676677      3.027917      3.027917      6.055834
     -1.666667      4.408108      4.408108      8.816216
     -1.656657      6.170362      6.170362     12.340725
     -1.646647      8.072014      8.072014     16.144028
     -1.636637      9.789345      9.789345     19.578690
     -1.626627     10.993078     10.993078     21.986157
