# EIG2DOS: Utility for SIESTA to obtain the electronic density of states
#  E. Artacho, Apr 1999, A. Garcia, Apr 2012
#  Nick R. Papior, Feb 2017
# ------------------------------------------
# Eigenvalues calculated from a non-polarized calculation
# Eigenvalues read from siesta.EIG
# Kpoint weights read from siesta.KP
# Using smearing parameter:   0.0500
# Using 1000 points in the energy range
# Selected bands: 1 to: 2981
# Emin, Emax in file for selected band(s):    -27.0459095    218.3202470
# Nbands, Nspin, Nk   =   2981     1     1
# E_F                 =    -4.2866 eV --> (shifted to ZERO)
# Broadening          =     0.0500 eV
#
#        E            N(up)  (=)   N(down)         Ntot
     -5.000000     43.056845     43.056845     86.113690
     -4.989990     44.834334     44.834334     89.668668
     -4.979980     45.918635     45.918635     91.837270
     -4.969970     46.190877     46.190877     92.381755
     -4.959960     45.522432     45.522432     91.044864
     -4.949950     43.859595     43.859595     87.719189
     -4.939940     41.301094     41.301094     82.602189
     -4.929930     38.136891     38.136891     76.273782
     -4.919920     34.842233     34.842233     69.684467
     -4.909910     32.035167     32.035167     64.070334
     -4.899900     30.399328     30.399328     60.798655
     -4.889890     30.560175     30.560175     61.120350
     -4.879880     32.908036     32.908036     65.816072
     -4.869870     37.399786     37.399786     74.799573
     -4.859860     43.423723     43.423723     86.847445
     -4.849850     49.832289     49.832289     99.664577
     -4.839840     55.196602     55.196602    110.393205
     -4.829830     58.225302     58.225302    116.450604
     -4.819820     58.182990     58.182990    116.365980
     -4.809810     55.118150     55.118150    110.236299
     -4.799800     49.796301     49.796301     99.592602
     -4.789790     43.383158     43.383158     86.766316
     -4.779780     37.040360     37.040360     74.080720
     -4.769770     31.612624     31.612624     63.225247
     -4.759760     27.503754     27.503754     55.007508
     -4.749750     24.727022     24.727022     49.454043
     -4.739740     23.045269     23.045269     46.090538
     -4.729730     22.113464     22.113464     44.226928
     -4.719720     21.576645     21.576645     43.153291
     -4.709710     21.119289     21.119289     42.238579
     -4.699700     20.485872     20.485872     40.971745
     -4.689690     19.496720     19.496720     38.993439
     -4.679680     18.075378     18.075378     36.150755
     -4.669670     16.288659     16.288659     32.577318
     -4.659660     14.383495     14.383495     28.766990
     -4.649650     12.794422     12.794422     25.588845
     -4.639640     12.098369     12.098369     24.196739
     -4.629630     12.907609     12.907609     25.815219
     -4.619620     15.710613     15.710613     31.421227
     -4.609610     20.690704     20.690704     41.381408
     -4.599600     27.574114     27.574114     55.148227
     -4.589590     35.575765     35.575765     71.151531
     -4.579580     43.504285     43.504285     87.008569
     -4.569570     50.040176     50.040176    100.080353
     -4.559560     54.120413     54.120413    108.240827
     -4.549550     55.289789     55.289789    110.579579
     -4.539540     53.865560     53.865560    107.731120
     -4.529530     50.829433     50.829433    101.658866
     -4.519520     47.481065     47.481065     94.962130
     -4.509510     44.995295     44.995295     89.990591
     -4.499499     44.062811     44.062811     88.125623
     -4.489489     44.743968     44.743968     89.487935
     -4.479479     46.559984     46.559984     93.119969
     -4.469469     48.742704     48.742704     97.485407
     -4.459459     50.513711     50.513711    101.027422
     -4.449449     51.283051     51.283051    102.566102
     -4.439439     50.725705     50.725705    101.451410
     -4.429429     48.765968     48.765968     97.531935
     -4.419419     45.534205     45.534205     91.068410
     -4.409409     41.342449     41.342449     82.684898
     -4.399399     36.675369     36.675369     73.350738
     -4.389389     32.153366     32.153366     64.306732
     -4.379379     28.428591     28.428591     56.857182
     -4.369369     26.022056     26.022056     52.044112
     -4.359359     25.165021     25.165021     50.330043
     -4.349349     25.726765     25.726765     51.453530
     -4.339339     27.275723     27.275723     54.551447
     -4.329329     29.253252     29.253252     58.506505
     -4.319319     31.182299     31.182299     62.364598
     -4.309309     32.820740     32.820740     65.641479
     -4.299299     34.202875     34.202875     68.405750
     -4.289289     35.566218     35.566218     71.132437
     -4.279279     37.202823     37.202823     74.405646
     -4.269269     39.291123     39.291123     78.582247
     -4.259259     41.763012     41.763012     83.526025
     -4.249249     44.253815     44.253815     88.507631
     -4.239239     46.168948     46.168948     92.337896
     -4.229229     46.867827     46.867827     93.735655
     -4.219219     45.910965     45.910965     91.821929
     -4.209209     43.266011     43.266011     86.532021
     -4.199199     39.364935     39.364935     78.729870
     -4.189189     34.967884     34.967884     69.935768
     -4.179179     30.890603     30.890603     61.781205
     -4.169169     27.727549     27.727549     55.455098
     -4.159159     25.701477     25.701477     51.402954
     -4.149149     24.695244     24.695244     49.390487
     -4.139139     24.423822     24.423822     48.847643
     -4.129129     24.641134     24.641134     49.282268
     -4.119119     25.273041     25.273041     50.546082
     -4.109109     26.413907     26.413907     52.827814
     -4.099099     28.193061     28.193061     56.386121
     -4.089089     30.583033     30.583033     61.166067
     -4.079079     33.259450     33.259450     66.518900
     -4.069069     35.609959     35.609959     71.219919
     -4.059059     36.919699     36.919699     73.839397
     -4.049049     36.660985     36.660985     73.321971
     -4.039039     34.743543     34.743543     69.487087
     -4.029029     31.590767     31.590767     63.181534
     -4.019019     27.999715     27.999715     55.999431
     -4.009009     24.861180     24.861180     49.722360
     -3.998999     22.884408     22.884408     45.768817
     -3.988989     22.448281     22.448281     44.896563
     -3.978979     23.610578     23.610578     47.221156
     -3.968969     26.216040     26.216040     52.432080
     -3.958959     30.010677     30.010677     60.021354
     -3.948949     34.704254     34.704254     69.408508
     -3.938939     39.985901     39.985901     79.971802
     -3.928929     45.535791     45.535791     91.071582
     -3.918919     51.063148     51.063148    102.126295
     -3.908909     56.356197     56.356197    112.712395
     -3.898899     61.296810     61.296810    122.593620
     -3.888889     65.803115     65.803115    131.606231
     -3.878879     69.713094     69.713094    139.426189
     -3.868869     72.675779     72.675779    145.351559
     -3.858859     74.134538     74.134538    148.269077
     -3.848849     73.450871     73.450871    146.901742
     -3.838839     70.142576     70.142576    140.285153
     -3.828829     64.138094     64.138094    128.276189
     -3.818819     55.923209     55.923209    111.846417
     -3.808809     46.496685     46.496685     92.993371
     -3.798799     37.138000     37.138000     74.276000
     -3.788789     29.074774     29.074774     58.149547
     -3.778779     23.174740     23.174740     46.349479
     -3.768769     19.763873     19.763873     39.527746
     -3.758759     18.611672     18.611672     37.223343
     -3.748749     19.063548     19.063548     38.127096
     -3.738739     20.263909     20.263909     40.527817
     -3.728729     21.404364     21.404364     42.808727
     -3.718719     21.938555     21.938555     43.877109
     -3.708709     21.717495     21.717495     43.434990
     -3.698699     21.014160     21.014160     42.028321
     -3.688689     20.426116     20.426116     40.852232
     -3.678679     20.673010     20.673010     41.346019
     -3.668669     22.339338     22.339338     44.678676
     -3.658659     25.641435     25.641435     51.282870
     -3.648649     30.304533     30.304533     60.609066
     -3.638639     35.606771     35.606771     71.213542
     -3.628629     40.584042     40.584042     81.168084
     -3.618619     44.318582     44.318582     88.637164
     -3.608609     46.195413     46.195413     92.390827
     -3.598599     46.031080     46.031080     92.062159
     -3.588589     44.047573     44.047573     88.095146
     -3.578579     40.736339     40.736339     81.472677
     -3.568569     36.688663     36.688663     73.377325
     -3.558559     32.451351     32.451351     64.902701
     -3.548549     28.429607     28.429607     56.859214
     -3.538539     24.837176     24.837176     49.674353
     -3.528529     21.694713     21.694713     43.389425
     -3.518519     18.880989     18.880989     37.761978
     -3.508509     16.228588     16.228588     32.457177
     -3.498498     13.630919     13.630919     27.261838
     -3.488488     11.114395     11.114395     22.228789
     -3.478478      8.844255      8.844255     17.688511
     -3.468468      7.066165      7.066165     14.132331
     -3.458458      6.014121      6.014121     12.028242
     -3.448448      5.822169      5.822169     11.644338
     -3.438438      6.466796      6.466796     12.933591
     -3.428428      7.753713      7.753713     15.507425
     -3.418418      9.355180      9.355180     18.710359
     -3.408408     10.896579     10.896579     21.793158
     -3.398398     12.075151     12.075151     24.150303
     -3.388388     12.772695     12.772695     25.545391
     -3.378378     13.113982     13.113982     26.227964
     -3.368368     13.438581     13.438581     26.877162
     -3.358358     14.192110     14.192110     28.384219
     -3.348348     15.780203     15.780203     31.560405
     -3.338338     18.439371     18.439371     36.878741
     -3.328328     22.158452     22.158452     44.316903
     -3.318318     26.653348     26.653348     53.306696
     -3.308308     31.384297     31.384297     62.768593
     -3.298298     35.616945     35.616945     71.233891
     -3.288288     38.543888     38.543888     77.087776
     -3.278278     39.470830     39.470830     78.941660
     -3.268268     38.026030     38.026030     76.052061
     -3.258258     34.307174     34.307174     68.614349
     -3.248248     28.882729     28.882729     57.765458
     -3.238238     22.628263     22.628263     45.256525
     -3.228228     16.464146     16.464146     32.928292
     -3.218218     11.109892     11.109892     22.219785
     -3.208208      6.950905      6.950905     13.901810
     -3.198198      4.045463      4.045463      8.090926
     -3.188188      2.232609      2.232609      4.465218
     -3.178178      1.272702      1.272702      2.545404
     -3.168168      0.964716      0.964716      1.929433
     -3.158158      1.215098      1.215098      2.430196
     -3.148148      2.057315      2.057315      4.114629
     -3.138138      3.629583      3.629583      7.259167
     -3.128128      6.116838      6.116838     12.233677
     -3.118118      9.664014      9.664014     19.328029
     -3.108108     14.278014     14.278014     28.556029
     -3.098098     19.750818     19.750818     39.501636
     -3.088088     25.642489     25.642489     51.284978
     -3.078078     31.347555     31.347555     62.695110
     -3.068068     36.231587     36.231587     72.463175
     -3.058058     39.785443     39.785443     79.570887
     -3.048048     41.730292     41.730292     83.460584
     -3.038038     42.032863     42.032863     84.065727
     -3.028028     40.844279     40.844279     81.688559
     -3.018018     38.420012     38.420012     76.840024
     -3.008008     35.079246     35.079246     70.158492
     -2.997998     31.218173     31.218173     62.436345
     -2.987988     27.338497     27.338497     54.676994
     -2.977978     24.032687     24.032687     48.065374
     -2.967968     21.896229     21.896229     43.792457
     -2.957958     21.390163     21.390163     42.780326
     -2.947948     22.713427     22.713427     45.426855
     -2.937938     25.739991     25.739991     51.479983
     -2.927928     30.039951     30.039951     60.079903
     -2.917918     34.966543     34.966543     69.933087
     -2.907908     39.776322     39.776322     79.552644
     -2.897898     43.757662     43.757662     87.515325
     -2.887888     46.354701     46.354701     92.709403
     -2.877878     47.272771     47.272771     94.545541
     -2.867868     46.538686     46.538686     93.077371
     -2.857858     44.483465     44.483465     88.966931
     -2.847848     41.633423     41.633423     83.266847
     -2.837838     38.536112     38.536112     77.072225
     -2.827828     35.586835     35.586835     71.173671
     -2.817818     32.931044     32.931044     65.862088
     -2.807808     30.485951     30.485951     60.971901
     -2.797798     28.065507     28.065507     56.131013
     -2.787788     25.539437     25.539437     51.078873
     -2.777778     22.940419     22.940419     45.880838
     -2.767768     20.464498     20.464498     40.928996
     -2.757758     18.371647     18.371647     36.743294
     -2.747748     16.850966     16.850966     33.701933
     -2.737738     15.934374     15.934374     31.868747
     -2.727728     15.511283     15.511283     31.022565
     -2.717718     15.432244     15.432244     30.864488
     -2.707708     15.631217     15.631217     31.262433
     -2.697698     16.181789     16.181789     32.363579
     -2.687688     17.243929     17.243929     34.487859
     -2.677678     18.930434     18.930434     37.860868
     -2.667668     21.179431     21.179431     42.358862
     -2.657658     23.721593     23.721593     47.443185
     -2.647648     26.173169     26.173169     52.346339
     -2.637638     28.204270     28.204270     56.408540
     -2.627628     29.680885     29.680885     59.361770
     -2.617618     30.695544     30.695544     61.391088
     -2.607608     31.475046     31.475046     62.950092
     -2.597598     32.231896     32.231896     64.463792
     -2.587588     33.052614     33.052614     66.105227
     -2.577578     33.875333     33.875333     67.750666
     -2.567568     34.539282     34.539282     69.078563
     -2.557558     34.848480     34.848480     69.696960
     -2.547548     34.609415     34.609415     69.218829
     -2.537538     33.651655     33.651655     67.303309
     -2.527528     31.868550     31.868550     63.737099
     -2.517518     29.293338     29.293338     58.586675
     -2.507508     26.175532     26.175532     52.351064
     -2.497497     22.992984     22.992984     45.985967
     -2.487487     20.357725     20.357725     40.715449
     -2.477477     18.835120     18.835120     37.670239
     -2.467467     18.752439     18.752439     37.504879
     -2.457457     20.087262     20.087262     40.174524
     -2.447447     22.490970     22.490970     44.981941
     -2.437437     25.439050     25.439050     50.878100
     -2.427427     28.440168     28.440168     56.880335
     -2.417417     31.207668     31.207668     62.415337
     -2.407407     33.713583     33.713583     67.427166
     -2.397397     36.100554     36.100554     72.201109
     -2.387387     38.496838     38.496838     76.993676
     -2.377377     40.830279     40.830279     81.660557
     -2.367367     42.742856     42.742856     85.485711
     -2.357357     43.662734     43.662734     87.325468
     -2.347347     43.014959     43.014959     86.029918
     -2.337337     40.480927     40.480927     80.961855
     -2.327327     36.187346     36.187346     72.374692
     -2.317317     30.735435     30.735435     61.470870
     -2.307307     25.056221     25.056221     50.112442
     -2.297297     20.156469     20.156469     40.312937
     -2.287287     16.859341     16.859341     33.718681
     -2.277277     15.628764     15.628764     31.257528
     -2.267267     16.515884     16.515884     33.031769
     -2.257257     19.214496     19.214496     38.428991
     -2.247247     23.183127     23.183127     46.366254
     -2.237237     27.785834     27.785834     55.571668
     -2.227227     32.411494     32.411494     64.822988
     -2.217217     36.545638     36.545638     73.091275
     -2.207207     39.789334     39.789334     79.578668
     -2.197197     41.844107     41.844107     83.688213
     -2.187187     42.499133     42.499133     84.998265
     -2.177177     41.652092     41.652092     83.304185
     -2.167167     39.364088     39.364088     78.728176
     -2.157157     35.909440     35.909440     71.818880
     -2.147147     31.763833     31.763833     63.527666
     -2.137137     27.500115     27.500115     55.000231
     -2.127127     23.619310     23.619310     47.238620
     -2.117117     20.395399     20.395399     40.790797
     -2.107107     17.816141     17.816141     35.632281
     -2.097097     15.651261     15.651261     31.302522
     -2.087087     13.606983     13.606983     27.213965
     -2.077077     11.480928     11.480928     22.961856
     -2.067067      9.241443      9.241443     18.482886
     -2.057057      7.007977      7.007977     14.015953
     -2.047047      4.965403      4.965403      9.930806
     -2.037037      3.270626      3.270626      6.541251
     -2.027027      1.997051      1.997051      3.994102
     -2.017017      1.129642      1.129642      2.259284
     -2.007007      0.595198      0.595198      1.190395
     -1.996997      0.302945      0.302945      0.605889
     -1.986987      0.177287      0.177287      0.354574
     -1.976977      0.176959      0.176959      0.353919
     -1.966967      0.303401      0.303401      0.606803
     -1.956957      0.602576      0.602576      1.205152
     -1.946947      1.160659      1.160659      2.321317
     -1.936937      2.089603      2.089603      4.179205
     -1.926927      3.498031      3.498031      6.996062
     -1.916917      5.448493      5.448493     10.896986
     -1.906907      7.912097      7.912097     15.824194
     -1.896897     10.739611     10.739611     21.479222
     -1.886887     13.667207     13.667207     27.334413
     -1.876877     16.362907     16.362907     32.725814
     -1.866867     18.502435     18.502435     37.004871
     -1.856857     19.850664     19.850664     39.701329
     -1.846847     20.323103     20.323103     40.646206
     -1.836837     20.008316     20.008316     40.016632
     -1.826827     19.141416     19.141416     38.282832
     -1.816817     18.029901     18.029901     36.059801
     -1.806807     16.949321     16.949321     33.898642
     -1.796797     16.045319     16.045319     32.090638
     -1.786787     15.287284     15.287284     30.574569
     -1.776777     14.502891     14.502891     29.005782
     -1.766767     13.483462     13.483462     26.966923
     -1.756757     12.110154     12.110154     24.220308
     -1.746747     10.438296     10.438296     20.876592
     -1.736737      8.701414      8.701414     17.402828
     -1.726727      7.239984      7.239984     14.479969
     -1.716717      6.393405      6.393405     12.786810
     -1.706707      6.399859      6.399859     12.799718
     -1.696697      7.333055      7.333055     14.666110
     -1.686687      9.084783      9.084783     18.169566
     -1.676677     11.389547     11.389547     22.779093
     -1.666667     13.881348     13.881348     27.762695
     -1.656657     16.167399     16.167399     32.334797
     -1.646647     17.899500     17.899500     35.799001
     -1.636637     18.826785     18.826785     37.653571
     -1.626627     18.825098     18.825098     37.650196
