# EIG2DOS: Utility for SIESTA to obtain the electronic density of states
#  E. Artacho, Apr 1999, A. Garcia, Apr 2012
#  Nick R. Papior, Feb 2017
# ------------------------------------------
# Eigenvalues calculated from a non-polarized calculation
# Eigenvalues read from siesta.EIG
# Kpoint weights read from siesta.KP
# Using smearing parameter:   0.0500
# Using 1000 points in the energy range
# Selected bands: 1 to: 2981
# Emin, Emax in file for selected band(s):    -27.3414055    218.4026460
# Nbands, Nspin, Nk   =   2981     1     1
# E_F                 =    -4.1925 eV --> (shifted to ZERO)
# Broadening          =     0.0500 eV
#
#        E            N(up)  (=)   N(down)         Ntot
     -5.000000     32.423027     32.423027     64.846054
     -4.989990     37.790739     37.790739     75.581478
     -4.979980     42.731209     42.731209     85.462418
     -4.969970     46.343823     46.343823     92.687647
     -4.959960     47.926826     47.926826     95.853651
     -4.949950     47.215671     47.215671     94.431342
     -4.939940     44.473646     44.473646     88.947292
     -4.929930     40.416862     40.416862     80.833725
     -4.919920     36.029708     36.029708     72.059416
     -4.909910     32.350889     32.350889     64.701778
     -4.899900     30.281483     30.281483     60.562966
     -4.889890     30.423693     30.423693     60.847385
     -4.879880     32.946134     32.946134     65.892268
     -4.869870     37.497548     37.497548     74.995097
     -4.859860     43.222359     43.222359     86.444719
     -4.849850     48.924653     48.924653     97.849307
     -4.839840     53.369076     53.369076    106.738152
     -4.829830     55.630182     55.630182    111.260363
     -4.819820     55.358824     55.358824    110.717648
     -4.809810     52.857998     52.857998    105.715996
     -4.799800     48.940445     48.940445     97.880890
     -4.789790     44.631660     44.631660     89.263320
     -4.779780     40.837690     40.837690     81.675380
     -4.769770     38.096002     38.096002     76.192004
     -4.759760     36.480830     36.480830     72.961659
     -4.749750     35.670503     35.670503     71.341005
     -4.739740     35.129298     35.129298     70.258596
     -4.729730     34.324584     34.324584     68.649167
     -4.719720     32.897463     32.897463     65.794926
     -4.709710     30.733475     30.733475     61.466950
     -4.699700     27.931059     27.931059     55.862118
     -4.689690     24.715554     24.715554     49.431108
     -4.679680     21.365618     21.365618     42.731236
     -4.669670     18.194256     18.194256     36.388513
     -4.659660     15.576140     15.576140     31.152280
     -4.649650     13.972293     13.972293     27.944585
     -4.639640     13.897863     13.897863     27.795726
     -4.629630     15.808020     15.808020     31.616040
     -4.619620     19.922677     19.922677     39.845354
     -4.609610     26.052890     26.052890     52.105780
     -4.599600     33.514463     33.514463     67.028927
     -4.589590     41.202534     41.202534     82.405067
     -4.579580     47.846106     47.846106     95.692213
     -4.569570     52.376890     52.376890    104.753781
     -4.559560     54.273790     54.273790    108.547579
     -4.549550     53.731940     53.731940    107.463879
     -4.539540     51.572109     51.572109    103.144218
     -4.529530     48.921778     48.921778     97.843555
     -4.519520     46.800847     46.800847     93.601694
     -4.509510     45.780455     45.780455     91.560909
     -4.499499     45.840813     45.840813     91.681627
     -4.489489     46.461754     46.461754     92.923507
     -4.479479     46.883898     46.883898     93.767795
     -4.469469     46.419274     46.419274     92.838548
     -4.459459     44.687152     44.687152     89.374303
     -4.449449     41.699144     41.699144     83.398288
     -4.439439     37.791856     37.791856     75.583711
     -4.429429     33.470194     33.470194     66.940389
     -4.419419     29.249763     29.249763     58.499526
     -4.409409     25.562769     25.562769     51.125538
     -4.399399     22.736726     22.736726     45.473453
     -4.389389     21.006249     21.006249     42.012499
     -4.379379     20.508227     20.508227     41.016453
     -4.369369     21.243601     21.243601     42.487201
     -4.359359     23.035916     23.035916     46.071833
     -4.349349     25.538078     25.538078     51.076156
     -4.339339     28.315765     28.315765     56.631531
     -4.329329     30.985350     30.985350     61.970701
     -4.319319     33.343083     33.343083     66.686166
     -4.309309     35.418963     35.418963     70.837927
     -4.299299     37.423176     37.423176     74.846351
     -4.289289     39.602674     39.602674     79.205349
     -4.279279     42.065300     42.065300     84.130601
     -4.269269     44.645407     44.645407     89.290814
     -4.259259     46.876246     46.876246     93.752491
     -4.249249     48.101024     48.101024     96.202049
     -4.239239     47.700512     47.700512     95.401023
     -4.229229     45.356031     45.356031     90.712063
     -4.219219     41.233086     41.233086     82.466172
     -4.209209     35.990967     35.990967     71.981933
     -4.199199     30.598284     30.598284     61.196569
     -4.189189     26.026997     26.026997     52.053994
     -4.179179     22.955813     22.955813     45.911627
     -4.169169     21.605332     21.605332     43.210664
     -4.159159     21.760342     21.760342     43.520683
     -4.149149     22.948437     22.948437     45.896874
     -4.139139     24.680541     24.680541     49.361082
     -4.129129     26.641143     26.641143     53.282286
     -4.119119     28.745422     28.745422     57.490844
     -4.109109     31.043974     31.043974     62.087947
     -4.099099     33.531378     33.531378     67.062756
     -4.089089     35.971146     35.971146     71.942292
     -4.079079     37.853362     37.853362     75.706725
     -4.069069     38.537873     38.537873     77.075747
     -4.059059     37.530192     37.530192     75.060384
     -4.049049     34.750833     34.750833     69.501666
     -4.039039     30.650782     30.650782     61.301563
     -4.029029     26.106717     26.106717     52.213434
     -4.019019     22.148291     22.148291     44.296582
     -4.009009     19.650606     19.650606     39.301212
     -3.998999     19.123378     19.123378     38.246755
     -3.988989     20.658175     20.658175     41.316349
     -3.978979     24.010095     24.010095     48.020190
     -3.968969     28.740916     28.740916     57.481831
     -3.958959     34.353940     34.353940     68.707879
     -3.948949     40.387403     40.387403     80.774805
     -3.938939     46.468739     46.468739     92.937478
     -3.928929     52.341979     52.341979    104.683958
     -3.918919     57.867140     57.867140    115.734281
     -3.908909     62.977387     62.977387    125.954773
     -3.898899     67.589858     67.589858    135.179715
     -3.888889     71.498984     71.498984    142.997967
     -3.878879     74.311123     74.311123    148.622246
     -3.868869     75.477048     75.477048    150.954096
     -3.858859     74.436805     74.436805    148.873610
     -3.848849     70.831870     70.831870    141.663739
     -3.838839     64.697802     64.697802    129.395604
     -3.828829     56.551118     56.551118    113.102235
     -3.818819     47.325827     47.325827     94.651653
     -3.808809     38.175365     38.175365     76.350730
     -3.798799     30.205419     30.205419     60.410838
     -3.788789     24.222927     24.222927     48.445854
     -3.778779     20.573605     20.573605     41.147209
     -3.768769     19.106105     19.106105     38.212209
     -3.758759     19.261663     19.261663     38.523327
     -3.748749     20.256637     20.256637     40.513274
     -3.738739     21.307307     21.307307     42.614614
     -3.728729     21.841458     21.841458     43.682915
     -3.718719     21.646810     21.646810     43.293621
     -3.708709     20.919724     20.919724     41.839449
     -3.698699     20.197495     20.197495     40.394989
     -3.688689     20.183765     20.183765     40.367530
     -3.678679     21.507335     21.507335     43.014671
     -3.668669     24.483167     24.483167     48.966334
     -3.658659     28.957561     28.957561     57.915122
     -3.648649     34.302911     34.302911     68.605821
     -3.638639     39.577012     39.577012     79.154024
     -3.628629     43.794216     43.794216     87.588432
     -3.618619     46.205002     46.205002     92.410005
     -3.608609     46.478630     46.478630     92.957259
     -3.598599     44.734101     44.734101     89.468202
     -3.588589     41.436536     41.436536     82.873072
     -3.578579     37.224846     37.224846     74.449692
     -3.568569     32.739686     32.739686     65.479372
     -3.558559     28.491904     28.491904     56.983808
     -3.548549     24.783682     24.783682     49.567364
     -3.538539     21.685793     21.685793     43.371586
     -3.528529     19.075839     19.075839     38.151678
     -3.518519     16.733858     16.733858     33.467716
     -3.508509     14.468471     14.468471     28.936942
     -3.498498     12.226269     12.226269     24.452539
     -3.488488     10.140074     10.140074     20.280147
     -3.478478      8.499486      8.499486     16.998973
     -3.468468      7.660095      7.660095     15.320190
     -3.458458      7.924802      7.924802     15.849604
     -3.448448      9.429415      9.429415     18.858829
     -3.438438     12.058711     12.058711     24.117423
     -3.428428     15.419972     15.419972     30.839944
     -3.418418     18.901521     18.901521     37.803043
     -3.408408     21.826039     21.826039     43.652079
     -3.398398     23.665903     23.665903     47.331806
     -3.388388     24.241647     24.241647     48.483295
     -3.378378     23.811329     23.811329     47.622658
     -3.368368     22.998523     22.998523     45.997046
     -3.358358     22.581334     22.581334     45.162667
     -3.348348     23.227526     23.227526     46.455052
     -3.338338     25.274110     25.274110     50.548219
     -3.328328     28.614745     28.614745     57.229490
     -3.318318     32.709822     32.709822     65.419645
     -3.308308     36.704804     36.704804     73.409608
     -3.298298     39.634227     39.634227     79.268454
     -3.288288     40.678335     40.678335     81.356670
     -3.278278     39.411970     39.411970     78.823939
     -3.268268     35.959071     35.959071     71.918141
     -3.258258     30.976821     30.976821     61.953642
     -3.248248     25.455587     25.455587     50.911174
     -3.238238     20.405003     20.405003     40.810005
     -3.228228     16.550478     16.550478     33.100956
     -3.218218     14.155399     14.155399     28.310798
     -3.208208     13.022523     13.022523     26.045046
     -3.198198     12.652234     12.652234     25.304467
     -3.188188     12.481517     12.481517     24.963034
     -3.178178     12.111092     12.111092     24.222185
     -3.168168     11.445816     11.445816     22.891631
     -3.158158     10.712601     10.712601     21.425202
     -3.148148     10.364130     10.364130     20.728259
     -3.138138     10.909681     10.909681     21.819363
     -3.128128     12.727962     12.727962     25.455923
     -3.118118     15.913864     15.913864     31.827727
     -3.108108     20.200843     20.200843     40.401686
     -3.098098     24.986900     24.986900     49.973800
     -3.088088     29.469744     29.469744     58.939488
     -3.078078     32.860863     32.860863     65.721726
     -3.068068     34.608798     34.608798     69.217597
     -3.058058     34.544024     34.544024     69.088048
     -3.048048     32.883533     32.883533     65.767067
     -3.038038     30.098374     30.098374     60.196747
     -3.028028     26.716681     26.716681     53.433362
     -3.018018     23.163812     23.163812     46.327624
     -3.008008     19.710117     19.710117     39.420234
     -2.997998     16.527345     16.527345     33.054690
     -2.987988     13.793448     13.793448     27.586897
     -2.977978     11.769024     11.769024     23.538048
     -2.967968     10.797913     10.797913     21.595827
     -2.957958     11.231340     11.231340     22.462680
     -2.947948     13.309260     13.309260     26.618519
     -2.937938     17.043715     17.043715     34.087430
     -2.927928     22.144731     22.144731     44.289461
     -2.917918     28.019580     28.019580     56.039160
     -2.907908     33.861634     33.861634     67.723268
     -2.897898     38.820325     38.820325     77.640650
     -2.887888     42.210453     42.210453     84.420906
     -2.877878     43.691191     43.691191     87.382381
     -2.867868     43.342453     43.342453     86.684907
     -2.857858     41.599694     41.599694     83.199388
     -2.847848     39.068105     39.068105     78.136210
     -2.837838     36.294924     36.294924     72.589848
     -2.827828     33.600955     33.600955     67.201910
     -2.817818     31.043010     31.043010     62.086021
     -2.807808     28.510800     28.510800     57.021599
     -2.797798     25.892099     25.892099     51.784197
     -2.787788     23.208568     23.208568     46.417135
     -2.777778     20.648867     20.648867     41.297734
     -2.767768     18.490367     18.490367     36.980735
     -2.757758     16.966851     16.966851     33.933702
     -2.747748     16.167937     16.167937     32.335874
     -2.737738     16.030128     16.030128     32.060256
     -2.727728     16.415986     16.415986     32.831973
     -2.717718     17.218004     17.218004     34.436008
     -2.707708     18.407980     18.407980     36.815961
     -2.697698     19.994132     19.994132     39.988265
     -2.687688     21.919973     21.919973     43.839946
     -2.677678     23.989563     23.989563     47.979126
     -2.667668     25.892729     25.892729     51.785458
     -2.657658     27.334258     27.334258     54.668515
     -2.647648     28.191416     28.191416     56.382832
     -2.637638     28.594363     28.594363     57.188725
     -2.627628     28.869253     28.869253     57.738507
     -2.617618     29.372850     29.372850     58.745700
     -2.607608     30.315407     30.315407     60.630815
     -2.597598     31.667833     31.667833     63.335665
     -2.587588     33.185829     33.185829     66.371658
     -2.577578     34.510666     34.510666     69.021333
     -2.567568     35.277296     35.277296     70.554591
     -2.557558     35.187654     35.187654     70.375307
     -2.547548     34.055006     34.055006     68.110012
     -2.537538     31.847369     31.847369     63.694738
     -2.527528     28.738062     28.738062     57.476123
     -2.517518     25.134265     25.134265     50.268530
     -2.507508     21.639491     21.639491     43.278983
     -2.497497     18.930648     18.930648     37.861297
     -2.487487     17.578063     17.578063     35.156125
     -2.477477     17.874295     17.874295     35.748591
     -2.467467     19.742284     19.742284     39.484568
     -2.457457     22.764614     22.764614     45.529228
     -2.447447     26.328373     26.328373     52.656745
     -2.437437     29.833030     29.833030     59.666060
     -2.427427     32.879703     32.879703     65.759406
     -2.417417     35.362211     35.362211     70.724421
     -2.407407     37.417607     37.417607     74.835215
     -2.397397     39.255706     39.255706     78.511411
     -2.387387     40.948173     40.948173     81.896346
     -2.377377     42.287296     42.287296     84.574592
     -2.367367     42.800653     42.800653     85.601306
     -2.357357     41.933657     41.933657     83.867314
     -2.347347     39.321163     39.321163     78.642326
     -2.337337     35.014153     35.014153     70.028306
     -2.327327     29.545697     29.545697     59.091393
     -2.317317     23.804482     23.804482     47.608965
     -2.307307     18.781887     18.781887     37.563774
     -2.297297     15.309680     15.309680     30.619359
     -2.287287     13.886546     13.886546     27.773093
     -2.277277     14.628305     14.628305     29.256611
     -2.267267     17.316564     17.316564     34.633127
     -2.257257     21.494948     21.494948     42.989895
     -2.247247     26.570115     26.570115     53.140230
     -2.237237     31.896503     31.896503     63.793006
     -2.227227     36.841534     36.841534     73.683068
     -2.217217     40.836646     40.836646     81.673291
     -2.207207     43.422334     43.422334     86.844667
     -2.197197     44.294737     44.294737     88.589473
     -2.187187     43.355308     43.355308     86.710615
     -2.177177     40.751745     40.751745     81.503489
     -2.167167     36.883067     36.883067     73.766134
     -2.157157     32.338846     32.338846     64.677692
     -2.147147     27.764850     27.764850     55.529700
     -2.137137     23.689888     23.689888     47.379776
     -2.127127     20.384883     20.384883     40.769766
     -2.117117     17.824051     17.824051     35.648103
     -2.107107     15.771249     15.771249     31.542498
     -2.097097     13.948065     13.948065     27.896130
     -2.087087     12.196921     12.196921     24.393842
     -2.077077     10.559462     10.559462     21.118924
     -2.067067      9.240216      9.240216     18.480432
     -2.057057      8.484482      8.484482     16.968963
     -2.047047      8.435350      8.435350     16.870701
     -2.037037      9.035807      9.035807     18.071615
     -2.027027     10.016358     10.016358     20.032716
     -2.017017     10.971905     10.971905     21.943809
     -2.007007     11.496658     11.496658     22.993316
     -1.996997     11.323181     11.323181     22.646361
     -1.986987     10.410508     10.410508     20.821017
     -1.976977      8.949797      8.949797     17.899594
     -1.966967      7.293946      7.293946     14.587891
     -1.956957      5.849156      5.849156     11.698313
     -1.946947      4.973633      4.973633      9.947266
     -1.936937      4.911059      4.911059      9.822117
     -1.926927      5.760793      5.760793     11.521585
     -1.916917      7.472268      7.472268     14.944537
     -1.906907      9.854121      9.854121     19.708242
     -1.896897     12.599496     12.599496     25.198993
     -1.886887     15.333507     15.333507     30.667015
     -1.876877     17.681576     17.681576     35.363151
     -1.866867     19.345354     19.345354     38.690708
     -1.856857     20.166170     20.166170     40.332340
     -1.846847     20.157779     20.157779     40.315557
     -1.836837     19.496637     19.496637     38.993275
     -1.826827     18.465974     18.465974     36.931949
     -1.816817     17.362220     17.362220     34.724440
     -1.806807     16.390610     16.390610     32.781219
     -1.796797     15.592245     15.592245     31.184489
     -1.786787     14.841286     14.841286     29.682572
     -1.776777     13.920581     13.920581     27.841161
     -1.766767     12.641070     12.641070     25.282141
     -1.756757     10.943971     10.943971     21.887942
     -1.746747      8.935359      8.935359     17.870717
     -1.736737      6.843961      6.843961     13.687921
     -1.726727      4.935714      4.935714      9.871427
     -1.716717      3.435205      3.435205      6.870410
     -1.706707      2.487918      2.487918      4.975837
     -1.696697      2.164400      2.164400      4.328800
     -1.686687      2.481552      2.481552      4.963103
     -1.676677      3.411816      3.411816      6.823631
     -1.666667      4.867422      4.867422      9.734844
     -1.656657      6.672026      6.672026     13.344052
     -1.646647      8.549989      8.549989     17.099977
     -1.636637     10.161924     10.161924     20.323847
     -1.626627     11.192190     11.192190     22.384380
