# EIG2DOS: Utility for SIESTA to obtain the electronic density of states
#  E. Artacho, Apr 1999, A. Garcia, Apr 2012
#  Nick R. Papior, Feb 2017
# ------------------------------------------
# Eigenvalues calculated from a non-polarized calculation
# Eigenvalues read from siesta.EIG
# Kpoint weights read from siesta.KP
# Using smearing parameter:   0.0500
# Using 1000 points in the energy range
# Selected bands: 1 to: 2981
# Emin, Emax in file for selected band(s):    -27.0333275    218.3086670
# Nbands, Nspin, Nk   =   2981     1     1
# E_F                 =    -4.3062 eV --> (shifted to ZERO)
# Broadening          =     0.0500 eV
#
#        E            N(up)  (=)   N(down)         Ntot
     -5.000000     45.116762     45.116762     90.233523
     -4.989990     48.699922     48.699922     97.399845
     -4.979980     50.759100     50.759100    101.518200
     -4.969970     51.122011     51.122011    102.244023
     -4.959960     49.860248     49.860248     99.720497
     -4.949950     47.251758     47.251758     94.503515
     -4.939940     43.713512     43.713512     87.427023
     -4.929930     39.741644     39.741644     79.483289
     -4.919920     35.881231     35.881231     71.762462
     -4.909910     32.718995     32.718995     65.437990
     -4.899900     30.865009     30.865009     61.730018
     -4.889890     30.879507     30.879507     61.759014
     -4.879880     33.121671     33.121671     66.243343
     -4.869870     37.550571     37.550571     75.101143
     -4.859860     43.570837     43.570837     87.141673
     -4.849850     50.041092     50.041092    100.082184
     -4.839840     55.513083     55.513083    111.026166
     -4.829830     58.652527     58.652527    117.305054
     -4.819820     58.675062     58.675062    117.350124
     -4.809810     55.595921     55.595921    111.191843
     -4.799800     50.176113     50.176113    100.352225
     -4.789790     43.603890     43.603890     87.207781
     -4.779780     37.077998     37.077998     74.155996
     -4.769770     31.480608     31.480608     62.961217
     -4.759760     27.244246     27.244246     54.488492
     -4.749750     24.399113     24.399113     48.798227
     -4.739740     22.713215     22.713215     45.426429
     -4.729730     21.835548     21.835548     43.671096
     -4.719720     21.395490     21.395490     42.790979
     -4.709710     21.055673     21.055673     42.111347
     -4.699700     20.537877     20.537877     41.075754
     -4.689690     19.643604     19.643604     39.287208
     -4.679680     18.283104     18.283104     36.566209
     -4.669670     16.513686     16.513686     33.027371
     -4.659660     14.573752     14.573752     29.147503
     -4.649650     12.889490     12.889490     25.778980
     -4.639640     12.032777     12.032777     24.065553
     -4.629630     12.620854     12.620854     25.241707
     -4.619620     15.164910     15.164910     30.329821
     -4.609610     19.892894     19.892894     39.785788
     -4.599600     26.592846     26.592846     53.185691
     -4.589590     34.542028     34.542028     69.084057
     -4.579580     42.586433     42.586433     85.172865
     -4.569570     49.395205     49.395205     98.790410
     -4.559560     53.837263     53.837263    107.674526
     -4.549550     55.349233     55.349233    110.698466
     -4.539540     54.137333     54.137333    108.274667
     -4.529530     51.110664     51.110664    102.221327
     -4.519520     47.559212     47.559212     95.118425
     -4.509510     44.705560     44.705560     89.411121
     -4.499499     43.312024     43.312024     86.624047
     -4.489489     43.490063     43.490063     86.980126
     -4.479479     44.760912     44.760912     89.521824
     -4.469469     46.309888     46.309888     92.619777
     -4.459459     47.311641     47.311641     94.623281
     -4.449449     47.200155     47.200155     94.400309
     -4.439439     45.803514     45.803514     91.607028
     -4.429429     43.328641     43.328641     86.657281
     -4.419419     40.235898     40.235898     80.471795
     -4.409409     37.070234     37.070234     74.140467
     -4.399399     34.311930     34.311930     68.623860
     -4.389389     32.284612     32.284612     64.569224
     -4.379379     31.126183     31.126183     62.252366
     -4.369369     30.805204     30.805204     61.610408
     -4.359359     31.159689     31.159689     62.319378
     -4.349349     31.944703     31.944703     63.889407
     -4.339339     32.887423     32.887423     65.774846
     -4.329329     33.750986     33.750986     67.501971
     -4.319319     34.399029     34.399029     68.798058
     -4.309309     34.840748     34.840748     69.681497
     -4.299299     35.234231     35.234231     70.468462
     -4.289289     35.837400     35.837400     71.674800
     -4.279279     36.913819     36.913819     73.827638
     -4.269269     38.615828     38.615828     77.231656
     -4.259259     40.878203     40.878203     81.756407
     -4.249249     43.363610     43.363610     86.727220
     -4.239239     45.500808     45.500808     91.001616
     -4.229229     46.633717     46.633717     93.267434
     -4.219219     46.248582     46.248582     92.497164
     -4.209209     44.189515     44.189515     88.379030
     -4.199199     40.752901     40.752901     81.505802
     -4.189189     36.597938     36.597938     73.195876
     -4.179179     32.506239     32.506239     65.012478
     -4.169169     29.107755     29.107755     58.215509
     -4.159159     26.705945     26.705945     53.411889
     -4.149149     25.273365     25.273365     50.546730
     -4.139139     24.593623     24.593623     49.187246
     -4.129129     24.455641     24.455641     48.911281
     -4.119119     24.792948     24.792948     49.585896
     -4.109109     25.698577     25.698577     51.397153
     -4.099099     27.310449     27.310449     54.620898
     -4.089089     29.627763     29.627763     59.255527
     -4.079079     32.362145     32.362145     64.724291
     -4.069069     34.924353     34.924353     69.848707
     -4.059059     36.586572     36.586572     73.173144
     -4.049049     36.762970     36.762970     73.525940
     -4.039039     35.272565     35.272565     70.545130
     -4.029029     32.444620     32.444620     64.889240
     -4.019019     29.009205     29.009205     58.018410
     -4.009009     25.834541     25.834541     51.669082
     -3.998999     23.650446     23.650446     47.300892
     -3.988989     22.885239     22.885239     45.770479
     -3.978979     23.657862     23.657862     47.315724
     -3.968969     25.872883     25.872883     51.745766
     -3.958959     29.326608     29.326608     58.653216
     -3.948949     33.763573     33.763573     67.527146
     -3.938939     38.886992     38.886992     77.773983
     -3.928929     44.368291     44.368291     88.736581
     -3.918919     49.890002     49.890002     99.780005
     -3.908909     55.209265     55.209265    110.418531
     -3.898899     60.190720     60.190720    120.381440
     -3.888889     64.762955     64.762955    129.525910
     -3.878879     68.801721     68.801721    137.603443
     -3.868869     72.002803     72.002803    144.005606
     -3.858859     73.835589     73.835589    147.671178
     -3.848849     73.641040     73.641040    147.282080
     -3.838839     70.863670     70.863670    141.727340
     -3.828829     65.325575     65.325575    130.651151
     -3.818819     57.410566     57.410566    114.821133
     -3.808809     48.056830     48.056830     96.113660
     -3.798799     38.544091     38.544091     77.088183
     -3.788789     30.156343     30.156343     60.312686
     -3.778779     23.850898     23.850898     47.701796
     -3.768769     20.047863     20.047863     40.095727
     -3.758759     18.591863     18.591863     37.183726
     -3.748749     18.870789     18.870789     37.741577
     -3.738739     20.034781     20.034781     40.069562
     -3.728729     21.247695     21.247695     42.495390
     -3.718719     21.910842     21.910842     43.821684
     -3.708709     21.811863     21.811863     43.623727
     -3.698699     21.165849     21.165849     42.331697
     -3.688689     20.534350     20.534350     41.068699
     -3.678679     20.634620     20.634620     41.269241
     -3.668669     22.084904     22.084904     44.169808
     -3.658659     25.162198     25.162198     50.324396
     -3.648649     29.659972     29.659972     59.319945
     -3.638639     34.909196     34.909196     69.818392
     -3.628629     39.965796     39.965796     79.931593
     -3.618619     43.894865     43.894865     87.789731
     -3.608609     46.036814     46.036814     92.073628
     -3.598599     46.153834     46.153834     92.307667
     -3.588589     44.420404     44.420404     88.840808
     -3.578579     41.296431     41.296431     82.592862
     -3.568569     37.359053     37.359053     74.718106
     -3.558559     33.155802     33.155802     66.311604
     -3.548549     29.104360     29.104360     58.208721
     -3.538539     25.439306     25.439306     50.878611
     -3.528529     22.205462     22.205462     44.410924
     -3.518519     19.302489     19.302489     38.604977
     -3.508509     16.574794     16.574794     33.149587
     -3.498498     13.916688     13.916688     27.833377
     -3.488488     11.347561     11.347561     22.695122
     -3.478478      9.023559      9.023559     18.047118
     -3.468468      7.184628      7.184628     14.369256
     -3.458458      6.065183      6.065183     12.130366
     -3.448448      5.805587      5.805587     11.611173
     -3.438438      6.392186      6.392186     12.784372
     -3.428428      7.640529      7.640529     15.281057
     -3.418418      9.228567      9.228567     18.457135
     -3.408408     10.779576     10.779576     21.559152
     -3.398398     11.979337     11.979337     23.958674
     -3.388388     12.690906     12.690906     25.381811
     -3.378378     13.018667     13.018667     26.037333
     -3.368368     13.287207     13.287207     26.574413
     -3.358358     13.937916     13.937916     27.875831
     -3.348348     15.384772     15.384772     30.769545
     -3.338338     17.884171     17.884171     35.768342
     -3.328328     21.454543     21.454543     42.909086
     -3.318318     25.849109     25.849109     51.698217
     -3.308308     30.568648     30.568648     61.137296
     -3.298298     34.912318     34.912318     69.824636
     -3.288288     38.083694     38.083694     76.167389
     -3.278278     39.363345     39.363345     78.726689
     -3.268268     38.316982     38.316982     76.633964
     -3.258258     34.958951     34.958951     69.917902
     -3.248248     29.782646     29.782646     59.565292
     -3.238238     23.623846     23.623846     47.247693
     -3.228228     17.409323     17.409323     34.818646
     -3.218218     11.901738     11.901738     23.803475
     -3.208208      7.544034      7.544034     15.088067
     -3.198198      4.443905      4.443905      8.887810
     -3.188188      2.468549      2.468549      4.937097
     -3.178178      1.383469      1.383469      2.766938
     -3.168168      0.975541      0.975541      1.951081
     -3.158158      1.129881      1.129881      2.259763
     -3.148148      1.856525      1.856525      3.713051
     -3.138138      3.273771      3.273771      6.547541
     -3.128128      5.554524      5.554524     11.109048
     -3.118118      8.842035      8.842035     17.684070
     -3.108108     13.150670     13.150670     26.301341
     -3.098098     18.283599     18.283599     36.567198
     -3.088088     23.809528     23.809528     47.619056
     -3.078078     29.129494     29.129494     58.258988
     -3.068068     33.627095     33.627095     67.254190
     -3.058058     36.846420     36.846420     73.692840
     -3.048048     38.613014     38.613014     77.226027
     -3.038038     39.032623     39.032623     78.065246
     -3.028028     38.369646     38.369646     76.739293
     -3.018018     36.883236     36.883236     73.766472
     -3.008008     34.729378     34.729378     69.458755
     -2.997998     31.993775     31.993775     63.987549
     -2.987988     28.828854     28.828854     57.657707
     -2.977978     25.592820     25.592820     51.185640
     -2.967968     22.882420     22.882420     45.764840
     -2.957958     21.415123     21.415123     42.830247
     -2.947948     21.803862     21.803862     43.607725
     -2.937938     24.323512     24.323512     48.647025
     -2.927928     28.768802     28.768802     57.537604
     -2.917918     34.460629     34.460629     68.921259
     -2.907908     40.400110     40.400110     80.800220
     -2.897898     45.520354     45.520354     91.040709
     -2.887888     48.956991     48.956991     97.913983
     -2.877878     50.254602     50.254602    100.509203
     -2.867868     49.447566     49.447566     98.895132
     -2.857858     46.994571     46.994571     93.989142
     -2.847848     43.593891     43.593891     87.187781
     -2.837838     39.946173     39.946173     79.892347
     -2.827828     36.548815     36.548815     73.097629
     -2.817818     33.593205     33.593205     67.186411
     -2.807808     30.995092     30.995092     61.990183
     -2.797798     28.532835     28.532835     57.065669
     -2.787788     26.021911     26.021911     52.043823
     -2.777778     23.439793     23.439793     46.879586
     -2.767768     20.943387     20.943387     41.886774
     -2.757758     18.779690     18.779690     37.559379
     -2.747748     17.148829     17.148829     34.297658
     -2.737738     16.104071     16.104071     32.208141
     -2.727728     15.549147     15.549147     31.098294
     -2.717718     15.331907     15.331907     30.663813
     -2.707708     15.371194     15.371194     30.742387
     -2.697698     15.730370     15.730370     31.460741
     -2.687688     16.583071     16.583071     33.166143
     -2.677678     18.086319     18.086319     36.172637
     -2.667668     20.239378     20.239378     40.478755
     -2.657658     22.821586     22.821586     45.643172
     -2.647648     25.456373     25.456373     50.912746
     -2.637638     27.769198     27.769198     55.538395
     -2.627628     29.546038     29.546038     59.092075
     -2.617618     30.798750     30.798750     61.597500
     -2.607608     31.705650     31.705650     63.411300
     -2.597598     32.476304     32.476304     64.952609
     -2.587588     33.230455     33.230455     66.460911
     -2.577578     33.954913     33.954913     67.909826
     -2.567568     34.535805     34.535805     69.071610
     -2.557558     34.814568     34.814568     69.629137
     -2.547548     34.622491     34.622491     69.244981
     -2.537538     33.795443     33.795443     67.590886
     -2.527528     32.206094     32.206094     64.412188
     -2.517518     29.837473     29.837473     59.674945
     -2.507508     26.871075     26.871075     53.742150
     -2.497497     23.723623     23.723623     47.447247
     -2.487487     20.978788     20.978788     41.957577
     -2.477477     19.219133     19.219133     38.438266
     -2.467467     18.827441     18.827441     37.654882
     -2.457457     19.852075     19.852075     39.704149
     -2.447447     22.003474     22.003474     44.006947
     -2.437437     24.785941     24.785941     49.571883
     -2.427427     27.703859     27.703859     55.407717
     -2.417417     30.445429     30.445429     60.890859
     -2.407407     32.956788     32.956788     65.913577
     -2.397397     35.371534     35.371534     70.743067
     -2.387387     37.832209     37.832209     75.664419
     -2.377377     40.296583     40.296583     80.593165
     -2.367367     42.433872     42.433872     84.867743
     -2.357357     43.676331     43.676331     87.352662
     -2.347347     43.417174     43.417174     86.834349
     -2.337337     41.272220     41.272220     82.544439
     -2.327327     37.286994     37.286994     74.573988
     -2.317317     31.993315     31.993315     63.986629
     -2.307307     26.289098     26.289098     52.578197
     -2.297297     21.194631     21.194631     42.389262
     -2.287287     17.585230     17.585230     35.170460
     -2.277277     15.994273     15.994273     31.988545
     -2.267267     16.535685     16.535685     33.071371
     -2.257257     18.943155     18.943155     37.886310
     -2.247247     22.689155     22.689155     45.378309
     -2.237237     27.134835     27.134835     54.269670
     -2.227227     31.664230     31.664230     63.328459
     -2.217217     35.767904     35.767904     71.535808
     -2.207207     39.063144     39.063144     78.126289
     -2.197197     41.267938     41.267938     82.535876
     -2.187187     42.170855     42.170855     84.341710
     -2.177177     41.639090     41.639090     83.278180
     -2.167167     39.674831     39.674831     79.349662
     -2.157157     36.482988     36.482988     72.965976
     -2.147147     32.486181     32.486181     64.972362
     -2.137137     28.242555     28.242555     56.485110
     -2.127127     24.281844     24.281844     48.563689
     -2.117117     20.935093     20.935093     41.870185
     -2.107107     18.248308     18.248308     36.496616
     -2.097097     16.025925     16.025925     32.051850
     -2.087087     13.975321     13.975321     27.950642
     -2.077077     11.869392     11.869392     23.738785
     -2.067067      9.644179      9.644179     19.288359
     -2.057057      7.396635      7.396635     14.793271
     -2.047047      5.306923      5.306923     10.613847
     -2.037037      3.542268      3.542268      7.084536
     -2.027027      2.192649      2.192649      4.385297
     -2.017017      1.257312      1.257312      2.514624
     -2.007007      0.670594      0.670594      1.341189
     -1.996997      0.342423      0.342423      0.684845
     -1.986987      0.193381      0.193381      0.386761
     -1.976977      0.176417      0.176417      0.352833
     -1.966967      0.286896      0.286896      0.573792
     -1.956957      0.565262      0.565262      1.130523
     -1.946947      1.093368      1.093368      2.186735
     -1.936937      1.981041      1.981041      3.962081
     -1.926927      3.338276      3.338276      6.676553
     -1.916917      5.233448      5.233448     10.466896
     -1.906907      7.647601      7.647601     15.295203
     -1.896897     10.443436     10.443436     20.886871
     -1.886887     13.367602     13.367602     26.735205
     -1.876877     16.093643     16.093643     32.187286
     -1.866867     18.295597     18.295597     36.591193
     -1.856857     19.729177     19.729177     39.458354
     -1.846847     20.294958     20.294958     40.589916
     -1.836837     20.064233     20.064233     40.128466
     -1.826827     19.257292     19.257292     38.514585
     -1.816817     18.174259     18.174259     36.348518
     -1.806807     17.093754     17.093754     34.187508
     -1.796797     16.173461     16.173461     32.346921
     -1.786787     15.397062     15.397062     30.794123
     -1.776777     14.598897     14.598897     29.197794
     -1.766767     13.560255     13.560255     27.120510
     -1.756757     12.130636     12.130636     24.261272
     -1.746747     10.312557     10.312557     20.625114
     -1.736737      8.271749      8.271749     16.543499
     -1.726727      6.279811      6.279811     12.559622
     -1.716717      4.631674      4.631674      9.263348
     -1.706707      3.583354      3.583354      7.166708
     -1.696697      3.328821      3.328821      6.657642
     -1.686687      4.000795      4.000795      8.001589
     -1.676677      5.663050      5.663050     11.326100
     -1.666667      8.272371      8.272371     16.544742
     -1.656657     11.619455     11.619455     23.238910
     -1.646647     15.289527     15.289527     30.579054
     -1.636637     18.692151     18.692151     37.384302
     -1.626627     21.183841     21.183841     42.367682
