# EIG2DOS: Utility for SIESTA to obtain the electronic density of states
#  E. Artacho, Apr 1999, A. Garcia, Apr 2012
#  Nick R. Papior, Feb 2017
# ------------------------------------------
# Eigenvalues calculated from a non-polarized calculation
# Eigenvalues read from siesta.EIG
# Kpoint weights read from siesta.KP
# Using smearing parameter:   0.0500
# Using 1000 points in the energy range
# Selected bands: 1 to: 2981
# Emin, Emax in file for selected band(s):    -27.2599457    218.4053610
# Nbands, Nspin, Nk   =   2981     1     1
# E_F                 =    -4.1885 eV --> (shifted to ZERO)
# Broadening          =     0.0500 eV
#
#        E            N(up)  (=)   N(down)         Ntot
     -5.000000     33.229661     33.229661     66.459322
     -4.989990     38.405548     38.405548     76.811096
     -4.979980     43.028953     43.028953     86.057905
     -4.969970     46.259882     46.259882     92.519764
     -4.959960     47.480389     47.480389     94.960777
     -4.949950     46.503662     46.503662     93.007324
     -4.939940     43.638511     43.638511     87.277021
     -4.929930     39.603545     39.603545     79.207091
     -4.919920     35.350226     35.350226     70.700452
     -4.909910     31.868091     31.868091     63.736182
     -4.899900     30.012328     30.012328     60.024657
     -4.889890     30.353633     30.353633     60.707266
     -4.879880     33.043860     33.043860     66.087720
     -4.869870     37.722765     37.722765     75.445530
     -4.859860     43.525070     43.525070     87.050140
     -4.849850     49.239141     49.239141     98.478282
     -4.839840     53.607124     53.607124    107.214248
     -4.829830     55.675756     55.675756    111.351513
     -4.819820     55.062517     55.062517    110.125034
     -4.809810     52.028085     52.028085    104.056170
     -4.799800     47.332161     47.332161     94.664323
     -4.789790     41.946610     41.946610     83.893221
     -4.779780     36.754022     36.754022     73.508043
     -4.769770     32.346673     32.346673     64.693346
     -4.759760     28.976577     28.976577     57.953154
     -4.749750     26.632877     26.632877     53.265755
     -4.739740     25.175610     25.175610     50.351220
     -4.729730     24.449134     24.449134     48.898269
     -4.719720     24.326542     24.326542     48.653084
     -4.709710     24.680998     24.680998     49.361995
     -4.699700     25.323129     25.323129     50.646258
     -4.689690     25.967212     25.967212     51.934424
     -4.679680     26.277917     26.277917     52.555833
     -4.669670     26.003125     26.003125     52.006250
     -4.659660     25.138721     25.138721     50.277442
     -4.649650     24.034214     24.034214     48.068428
     -4.639640     23.359628     23.359628     46.719256
     -4.629630     23.912013     23.912013     47.824026
     -4.619620     26.316147     26.316147     52.632294
     -4.609610     30.732635     30.732635     61.465271
     -4.599600     36.701202     36.701202     73.402404
     -4.589590     43.207187     43.207187     86.414374
     -4.579580     48.973983     48.973983     97.947966
     -4.569570     52.883910     52.883910    105.767820
     -4.559560     54.361696     54.361696    108.723393
     -4.549550     53.559227     53.559227    107.118454
     -4.539540     51.263251     51.263251    102.526502
     -4.529530     48.569802     48.569802     97.139604
     -4.519520     46.467461     46.467461     92.934923
     -4.509510     45.499590     45.499590     90.999181
     -4.499499     45.627454     45.627454     91.254908
     -4.489489     46.322871     46.322871     92.645742
     -4.479479     46.826086     46.826086     93.652172
     -4.469469     46.449272     46.449272     92.898545
     -4.459459     44.805606     44.805606     89.611212
     -4.449449     41.892067     41.892067     83.784133
     -4.439439     38.026025     38.026025     76.052049
     -4.429429     33.697059     33.697059     67.394118
     -4.419419     29.417952     29.417952     58.835904
     -4.409409     25.634310     25.634310     51.268621
     -4.399399     22.699446     22.699446     45.398893
     -4.389389     20.876362     20.876362     41.752724
     -4.379379     20.322135     20.322135     40.644270
     -4.369369     21.043489     21.043489     42.086978
     -4.359359     22.856385     22.856385     45.712770
     -4.349349     25.399446     25.399446     50.798893
     -4.339339     28.225115     28.225115     56.450230
     -4.329329     30.941966     30.941966     61.883932
     -4.319319     33.343298     33.343298     66.686597
     -4.309309     35.457093     35.457093     70.914186
     -4.299299     37.488839     37.488839     74.977677
     -4.289289     39.677955     39.677955     79.355909
     -4.279279     42.125783     42.125783     84.251567
     -4.269269     44.666790     44.666790     89.333579
     -4.259259     46.844338     46.844338     93.688677
     -4.249249     48.020175     48.020175     96.040349
     -4.239239     47.595673     47.595673     95.191347
     -4.229229     45.266829     45.266829     90.533657
     -4.219219     41.202121     41.202121     82.404243
     -4.209209     36.050903     36.050903     72.101807
     -4.199199     30.761927     30.761927     61.523855
     -4.189189     26.282732     26.282732     52.565464
     -4.179179     23.268954     23.268954     46.537909
     -4.169169     21.924916     21.924916     43.849832
     -4.159159     22.030174     22.030174     44.060347
     -4.149149     23.120130     23.120130     46.240260
     -4.139139     24.725127     24.725127     49.450255
     -4.129129     26.555619     26.555619     53.111237
     -4.119119     28.551997     28.551997     57.103994
     -4.109109     30.782437     30.782437     61.564875
     -4.099099     33.247555     33.247555     66.495111
     -4.089089     35.705696     35.705696     71.411391
     -4.079079     37.634662     37.634662     75.269325
     -4.069069     38.380722     38.380722     76.761444
     -4.059059     37.439447     37.439447     74.878894
     -4.049049     34.727006     34.727006     69.454011
     -4.039039     30.693952     30.693952     61.387905
     -4.029029     26.216307     26.216307     52.432614
     -4.019019     22.318794     22.318794     44.637587
     -4.009009     19.866068     19.866068     39.732136
     -3.998999     19.354774     19.354774     38.709549
     -3.988989     20.866782     20.866782     41.733564
     -3.978979     24.156838     24.156838     48.313676
     -3.968969     28.798142     28.798142     57.596285
     -3.958959     34.314347     34.314347     68.628694
     -3.948949     40.266140     40.266140     80.532281
     -3.938939     46.298134     46.298134     92.596268
     -3.928929     52.161587     52.161587    104.323173
     -3.918919     57.713073     57.713073    115.426146
     -3.908909     62.874016     62.874016    125.748032
     -3.898899     67.545380     67.545380    135.090760
     -3.888889     71.505229     71.505229    143.010457
     -3.878879     74.347378     74.347378    148.694757
     -3.868869     75.516964     75.516964    151.033928
     -3.858859     74.456377     74.456377    148.912754
     -3.848849     70.815857     70.815857    141.631713
     -3.838839     64.642520     64.642520    129.285040
     -3.828829     56.463240     56.463240    112.926480
     -3.818819     47.218545     47.218545     94.437089
     -3.808809     38.063899     38.063899     76.127797
     -3.798799     30.103372     30.103372     60.206743
     -3.788789     24.140004     24.140004     48.280007
     -3.778779     20.514621     20.514621     41.029242
     -3.768769     19.071074     19.071074     38.142149
     -3.758759     19.246833     19.246833     38.493667
     -3.748749     20.256328     20.256328     40.512657
     -3.738739     21.316224     21.316224     42.632449
     -3.728729     21.856919     21.856919     43.713838
     -3.718719     21.670163     21.670163     43.340326
     -3.708709     20.956207     20.956207     41.912414
     -3.698699     20.254112     20.254112     40.508225
     -3.688689     20.265473     20.265473     40.530947
     -3.678679     21.612838     21.612838     43.225676
     -3.668669     24.602396     24.602396     49.204792
     -3.658659     29.072694     29.072694     58.145387
     -3.648649     34.393303     34.393303     68.786605
     -3.638639     39.626257     39.626257     79.252514
     -3.628629     43.795990     43.795990     87.591981
     -3.618619     46.164697     46.164697     92.329394
     -3.608609     46.410000     46.410000     92.820001
     -3.598599     44.652971     44.652971     89.305942
     -3.588589     41.355036     41.355036     82.710071
     -3.578579     37.148887     37.148887     74.297774
     -3.568569     32.670028     32.670028     65.340055
     -3.558559     28.427054     28.427054     56.854108
     -3.548549     24.722271     24.722271     49.444543
     -3.538539     21.626976     21.626976     43.253951
     -3.528529     19.017483     19.017483     38.034967
     -3.518519     16.668645     16.668645     33.337290
     -3.508509     14.377217     14.377217     28.754434
     -3.498498     12.066695     12.066695     24.133390
     -3.488488      9.829388      9.829388     19.658776
     -3.478478      7.891979      7.891979     15.783957
     -3.468468      6.526914      6.526914     13.053828
     -3.458458      5.950698      5.950698     11.901397
     -3.448448      6.245882      6.245882     12.491765
     -3.438438      7.328293      7.328293     14.656586
     -3.428428      8.968119      8.968119     17.936239
     -3.418418     10.863691     10.863691     21.727382
     -3.408408     12.752098     12.752098     25.504197
     -3.398398     14.519541     14.519541     29.039082
     -3.388388     16.260152     16.260152     32.520303
     -3.378378     18.244126     18.244126     36.488251
     -3.368368     20.797797     20.797797     41.595594
     -3.358358     24.147132     24.147132     48.294264
     -3.348348     28.297001     28.297001     56.594003
     -3.338338     32.994096     32.994096     65.988193
     -3.328328     37.770200     37.770200     75.540400
     -3.318318     42.026133     42.026133     84.052267
     -3.308308     45.121972     45.121972     90.243944
     -3.298298     46.471918     46.471918     92.943836
     -3.288288     45.660393     45.660393     91.320785
     -3.278278     42.572960     42.572960     85.145921
     -3.268268     37.491494     37.491494     74.982987
     -3.258258     31.086415     31.086415     62.172830
     -3.248248     24.278074     24.278074     48.556147
     -3.238238     18.010355     18.010355     36.020710
     -3.228228     13.027586     13.027586     26.055171
     -3.218218      9.735855      9.735855     19.471710
     -3.208208      8.176625      8.176625     16.353250
     -3.198198      8.088977      8.088977     16.177953
     -3.188188      9.019654      9.019654     18.039307
     -3.178178     10.452811     10.452811     20.905623
     -3.168168     11.945544     11.945544     23.891088
     -3.158158     13.250231     13.250231     26.500463
     -3.148148     14.386902     14.386902     28.773805
     -3.138138     15.623489     15.623489     31.246977
     -3.128128     17.347885     17.347885     34.695770
     -3.118118     19.866821     19.866821     39.733641
     -3.108108     23.213487     23.213487     46.426973
     -3.098098     27.056671     27.056671     54.113341
     -3.088088     30.765742     30.765742     61.531485
     -3.078078     33.613458     33.613458     67.226916
     -3.068068     35.028888     35.028888     70.057777
     -3.058058     34.784842     34.784842     69.569684
     -3.048048     33.036905     33.036905     66.073809
     -3.038038     30.209377     30.209377     60.418753
     -3.028028     26.802631     26.802631     53.605262
     -3.018018     23.229468     23.229468     46.458935
     -3.008008     19.756604     19.756604     39.513209
     -2.997998     16.555718     16.555718     33.111437
     -2.987988     13.805067     13.805067     27.610134
     -2.977978     11.764812     11.764812     23.529623
     -2.967968     10.777835     10.777835     21.555670
     -2.957958     11.194661     11.194661     22.389322
     -2.947948     13.255570     13.255570     26.511139
     -2.937938     16.974316     16.974316     33.948631
     -2.927928     22.063767     22.063767     44.127533
     -2.917918     27.934268     27.934268     55.868537
     -2.907908     33.781170     33.781170     67.562339
     -2.897898     38.753567     38.753567     77.507134
     -2.887888     42.163199     42.163199     84.326398
     -2.877878     43.664331     43.664331     87.328662
     -2.867868     43.332150     43.332150     86.664299
     -2.857858     41.599795     41.599795     83.199590
     -2.847848     39.073716     39.073716     78.147432
     -2.837838     36.305220     36.305220     72.610441
     -2.827828     33.619634     33.619634     67.239268
     -2.817818     31.076132     31.076132     62.152264
     -2.807808     28.563268     28.563268     57.126536
     -2.797798     25.964746     25.964746     51.929491
     -2.787788     23.297260     23.297260     46.594520
     -2.777778     20.745823     20.745823     41.491645
     -2.767768     18.586773     18.586773     37.173545
     -2.757758     17.055532     17.055532     34.111065
     -2.747748     16.245187     16.245187     32.490374
     -2.737738     16.096327     16.096327     32.192654
     -2.727728     16.474999     16.474999     32.949997
     -2.717718     17.275443     17.275443     34.550886
     -2.707708     18.468627     18.468627     36.937254
     -2.697698     20.059223     20.059223     40.118446
     -2.687688     21.985534     21.985534     43.971069
     -2.677678     24.046945     24.046945     48.093891
     -2.667668     25.931643     25.931643     51.863286
     -2.657658     27.347257     27.347257     54.694514
     -2.647648     28.177704     28.177704     56.355408
     -2.637638     28.560880     28.560880     57.121761
     -2.627628     28.828335     28.828335     57.656669
     -2.617618     29.337542     29.337542     58.675084
     -2.607608     30.294723     30.294723     60.589447
     -2.597598     31.664055     31.664055     63.328111
     -2.587588     33.194728     33.194728     66.389455
     -2.577578     34.524007     34.524007     69.048015
     -2.567568     35.286209     35.286209     70.572417
     -2.557558     35.185510     35.185510     70.371021
     -2.547548     34.039149     34.039149     68.078299
     -2.537538     31.819667     31.819667     63.639334
     -2.527528     28.704504     28.704504     57.409008
     -2.517518     25.103718     25.103718     50.207437
     -2.507508     21.621660     21.621660     43.243319
     -2.497497     18.933429     18.933429     37.866858
     -2.487487     17.604849     17.604849     35.209698
     -2.477477     17.922077     17.922077     35.844154
     -2.467467     19.801372     19.801372     39.602744
     -2.457457     22.820335     22.820335     45.640671
     -2.447447     26.364340     26.364340     52.728680
     -2.437437     29.834970     29.834970     59.669940
     -2.427427     32.838715     32.838715     65.677430
     -2.417417     35.276762     35.276762     70.553523
     -2.407407     37.294153     37.294153     74.588307
     -2.397397     39.108056     39.108056     78.216112
     -2.387387     40.795559     40.795559     81.591118
     -2.377377     42.150960     42.150960     84.301920
     -2.367367     42.699208     42.699208     85.398416
     -2.357357     41.878367     41.878367     83.756733
     -2.347347     39.312914     39.312914     78.625828
     -2.337337     35.043526     35.043526     70.087053
     -2.327327     29.596207     29.596207     59.192415
     -2.317317     23.857586     23.857586     47.715173
     -2.307307     18.821733     18.821733     37.643466
     -2.297297     15.326091     15.326091     30.652182
     -2.287287     13.875807     13.875807     27.751615
     -2.277277     14.592252     14.592252     29.184503
     -2.267267     17.260798     17.260798     34.521595
     -2.257257     21.426871     21.426871     42.853742
     -2.247247     26.497259     26.497259     52.994518
     -2.237237     31.825501     31.825501     63.651003
     -2.227227     36.777922     36.777922     73.555844
     -2.217217     40.785373     40.785373     81.570746
     -2.207207     43.388460     43.388460     86.776920
     -2.197197     44.283576     44.283576     88.567153
     -2.187187     43.371512     43.371512     86.743024
     -2.177177     40.797497     40.797497     81.594994
     -2.167167     36.956283     36.956283     73.912565
     -2.157157     32.432515     32.432515     64.865030
     -2.147147     27.868174     27.868174     55.736348
     -2.137137     23.790925     23.790925     47.581850
     -2.127127     20.473650     20.473650     40.947300
     -2.117117     17.894909     17.894909     35.789817
     -2.107107     15.823901     15.823901     31.647803
     -2.097097     13.987170     13.987170     27.974340
     -2.087087     12.230676     12.230676     24.461352
     -2.077077     10.597526     10.597526     21.195051
     -2.067067      9.291142      9.291142     18.582285
     -2.057057      8.552912      8.552912     17.105825
     -2.047047      8.519567      8.519567     17.039133
     -2.037037      9.126705      9.126705     18.253410
     -2.027027     10.098881     10.098881     20.197761
     -2.017017     11.029162     11.029162     22.058324
     -2.007007     11.515566     11.515566     23.031132
     -1.996997     11.299351     11.299351     22.598703
     -1.986987     10.350166     10.350166     20.700332
     -1.976977      8.867880      8.867880     17.735759
     -1.966967      7.209408      7.209408     14.418816
     -1.956957      5.779640      5.779640     11.559279
     -1.946947      4.931454      4.931454      9.862907
     -1.936937      4.901288      4.901288      9.802577
     -1.926927      5.781112      5.781112     11.562225
     -1.916917      7.513964      7.513964     15.027928
     -1.906907      9.903972      9.903972     19.807944
     -1.896897     12.642667     12.642667     25.285333
     -1.886887     15.357285     15.357285     30.714569
     -1.876877     17.679075     17.679075     35.358150
     -1.866867     19.317747     19.317747     38.635494
     -1.856857     20.122281     20.122281     40.244563
     -1.846847     20.110987     20.110987     40.221973
     -1.836837     19.460242     19.460242     38.920485
     -1.826827     18.448821     18.448821     36.897643
     -1.816817     17.366112     17.366112     34.732224
     -1.806807     16.410231     16.410231     32.820463
     -1.796797     15.617393     15.617393     31.234786
     -1.786787     14.860514     14.860514     29.721028
     -1.776777     13.924960     13.924960     27.849921
     -1.766767     12.626789     12.626789     25.253577
     -1.756757     10.912902     10.912902     21.825804
     -1.746747      8.893598      8.893598     17.787196
     -1.736737      6.799146      6.799146     13.598291
     -1.726727      4.894355      4.894355      9.788710
     -1.716717      3.401035      3.401035      6.802070
     -1.706707      2.461601      2.461601      4.923202
     -1.696697      2.144315      2.144315      4.288630
     -1.686687      2.465064      2.465064      4.930128
     -1.676677      3.396510      3.396510      6.793020
     -1.666667      4.851977      4.851977      9.703953
     -1.656657      6.656585      6.656585     13.313169
     -1.646647      8.535979      8.535979     17.071959
     -1.636637     10.151358     10.151358     20.302716
     -1.626627     11.186627     11.186627     22.373253
