# EIG2DOS: Utility for SIESTA to obtain the electronic density of states
#  E. Artacho, Apr 1999, A. Garcia, Apr 2012
#  Nick R. Papior, Feb 2017
# ------------------------------------------
# Eigenvalues calculated from a non-polarized calculation
# Eigenvalues read from siesta.EIG
# Kpoint weights read from siesta.KP
# Using smearing parameter:   0.0500
# Using 1000 points in the energy range
# Selected bands: 1 to: 2981
# Emin, Emax in file for selected band(s):    -27.3329628    218.3832340
# Nbands, Nspin, Nk   =   2981     1     1
# E_F                 =    -4.2242 eV --> (shifted to ZERO)
# Broadening          =     0.0500 eV
#
#        E            N(up)  (=)   N(down)         Ntot
     -5.000000     36.159479     36.159479     72.318957
     -4.989990     40.095570     40.095570     80.191140
     -4.979980     43.085720     43.085720     86.171439
     -4.969970     44.651080     44.651080     89.302160
     -4.959960     44.549832     44.549832     89.099663
     -4.949950     42.855246     42.855246     85.710491
     -4.939940     39.944084     39.944084     79.888167
     -4.929930     36.419791     36.419791     72.839583
     -4.919920     33.013249     33.013249     66.026498
     -4.909910     30.487220     30.487220     60.974441
     -4.899900     29.537155     29.537155     59.074309
     -4.889890     30.663510     30.663510     61.327019
     -4.879880     34.012448     34.012448     68.024897
     -4.869870     39.233680     39.233680     78.467360
     -4.859860     45.445352     45.445352     90.890705
     -4.849850     51.381567     51.381567    102.763134
     -4.839840     55.718583     55.718583    111.437166
     -4.829830     57.472666     57.472666    114.945331
     -4.819820     56.304264     56.304264    112.608528
     -4.809810     52.595315     52.595315    105.190630
     -4.799800     47.275105     47.275105     94.550210
     -4.789790     41.488896     41.488896     82.977793
     -4.779780     36.261015     36.261015     72.522030
     -4.769770     32.274199     32.274199     64.548397
     -4.759760     29.803298     29.803298     59.606597
     -4.749750     28.765460     28.765460     57.530920
     -4.739740     28.821843     28.821843     57.643686
     -4.729730     29.484485     29.484485     58.968969
     -4.719720     30.213735     30.213735     60.427469
     -4.709710     30.508939     30.508939     61.017878
     -4.699700     29.993523     29.993523     59.987046
     -4.689690     28.487457     28.487457     56.974914
     -4.679680     26.056067     26.056067     52.112133
     -4.669670     23.025234     23.025234     46.050468
     -4.659660     19.955309     19.955309     39.910619
     -4.649650     17.567672     17.567672     35.135344
     -4.639640     16.621105     16.621105     33.242211
     -4.629630     17.743921     17.743921     35.487843
     -4.619620     21.245301     21.245301     42.490602
     -4.609610     26.954178     26.954178     53.908355
     -4.599600     34.154641     34.154641     68.309282
     -4.589590     41.681844     41.681844     83.363689
     -4.579580     48.194681     48.194681     96.389363
     -4.569570     52.560113     52.560113    105.120227
     -4.559560     54.210956     54.210956    108.421913
     -4.549550     53.325361     53.325361    106.650721
     -4.539540     50.742692     50.742692    101.485385
     -4.529530     47.645976     47.645976     95.291952
     -4.519520     45.142326     45.142326     90.284652
     -4.509510     43.907691     43.907691     87.815382
     -4.499499     44.020515     44.020515     88.041031
     -4.489489     45.020437     45.020437     90.040874
     -4.479479     46.138454     46.138454     92.276907
     -4.469469     46.590631     46.590631     93.181263
     -4.459459     45.823577     45.823577     91.647154
     -4.449449     43.639581     43.639581     87.279162
     -4.439439     40.189905     40.189905     80.379809
     -4.429429     35.877485     35.877485     71.754971
     -4.419419     31.232687     31.232687     62.465374
     -4.409409     26.811402     26.811402     53.622804
     -4.399399     23.128135     23.128135     46.256270
     -4.389389     20.605203     20.605203     41.210405
     -4.379379     19.515439     19.515439     39.030878
     -4.369369     19.920347     19.920347     39.840695
     -4.359359     21.635519     21.635519     43.271038
     -4.349349     24.261686     24.261686     48.523372
     -4.339339     27.292597     27.292597     54.585195
     -4.329329     30.266829     30.266829     60.533659
     -4.319319     32.900837     32.900837     65.801673
     -4.309309     35.145897     35.145897     70.291794
     -4.299299     37.147487     37.147487     74.294975
     -4.289289     39.128032     39.128032     78.256065
     -4.279279     41.240439     41.240439     82.480877
     -4.269269     43.445106     43.445106     86.890212
     -4.259259     45.455752     45.455752     90.911504
     -4.249249     46.785128     46.785128     93.570256
     -4.239239     46.895177     46.895177     93.790354
     -4.229229     45.412708     45.412708     90.825416
     -4.219219     42.325730     42.325730     84.651460
     -4.209209     38.060829     38.060829     76.121659
     -4.199199     33.383776     33.383776     66.767551
     -4.189189     29.151714     29.151714     58.303428
     -4.179179     26.026242     26.026242     52.052483
     -4.169169     24.280161     24.280161     48.560321
     -4.159159     23.781451     23.781451     47.562902
     -4.149149     24.146890     24.146890     48.293780
     -4.139139     24.976743     24.976743     49.953487
     -4.129129     26.049622     26.049622     52.099244
     -4.119119     27.382106     27.382106     54.764213
     -4.109109     29.125944     29.125944     58.251889
     -4.099099     31.358544     31.358544     62.717089
     -4.089089     33.885207     33.885207     67.770415
     -4.079079     36.179374     36.179374     72.358747
     -4.069069     37.523718     37.523718     75.047435
     -4.059059     37.303564     37.303564     74.607128
     -4.049049     35.307450     35.307450     70.614900
     -4.039039     31.873023     31.873023     63.746046
     -4.029029     27.797639     27.797639     55.595278
     -4.019019     24.062659     24.062659     48.125319
     -4.009009     21.515297     21.515297     43.030595
     -3.998999     20.655500     20.655500     41.311000
     -3.988989     21.596043     21.596043     43.192087
     -3.978979     24.162183     24.162183     48.324366
     -3.968969     28.038007     28.038007     56.076014
     -3.958959     32.876662     32.876662     65.753325
     -3.948949     38.347584     38.347584     76.695167
     -3.938939     44.146301     44.146301     88.292602
     -3.928929     50.003921     50.003921    100.007842
     -3.918919     55.705034     55.705034    111.410068
     -3.908909     61.088931     61.088931    122.177862
     -3.898899     66.005843     66.005843    132.011687
     -3.888889     70.233812     70.233812    140.467623
     -3.878879     73.404989     73.404989    146.809978
     -3.868869     75.005117     75.005117    150.010234
     -3.858859     74.480426     74.480426    148.960853
     -3.848849     71.428364     71.428364    142.856729
     -3.838839     65.797280     65.797280    131.594560
     -3.828829     58.004993     58.004993    116.009986
     -3.818819     48.914886     48.914886     97.829772
     -3.808809     39.665405     39.665405     79.330810
     -3.798799     31.406740     31.406740     62.813479
     -3.788789     25.031432     25.031432     50.062864
     -3.778779     20.982643     20.982643     41.965285
     -3.768769     19.191220     19.191220     38.382439
     -3.758759     19.148495     19.148495     38.296990
     -3.748749     20.083639     20.083639     40.167278
     -3.738739     21.192269     21.192269     42.384537
     -3.728729     21.857272     21.857272     43.714543
     -3.718719     21.809119     21.809119     43.618239
     -3.708709     21.187172     21.187172     42.374344
     -3.698699     20.483845     20.483845     40.967691
     -3.688689     20.379938     20.379938     40.759876
     -3.678679     21.510124     21.510124     43.020249
     -3.668669     24.225675     24.225675     48.451351
     -3.658659     28.434187     28.434187     56.868375
     -3.648649     33.580394     33.580394     67.160789
     -3.638639     38.784840     38.784840     77.569679
     -3.628629     43.093881     43.093881     86.187762
     -3.618619     45.746419     45.746419     91.492837
     -3.608609     46.358680     46.358680     92.717359
     -3.598599     44.972402     44.972402     89.944804
     -3.588589     41.976378     41.976378     83.952757
     -3.578579     37.956801     37.956801     75.913602
     -3.568569     33.537078     33.537078     67.074156
     -3.558559     29.244720     29.244720     58.489441
     -3.548549     25.420458     25.420458     50.840916
     -3.538539     22.179021     22.179021     44.358042
     -3.528529     19.432489     19.432489     38.864978
     -3.518519     16.976389     16.976389     33.952777
     -3.508509     14.612269     14.612269     29.224538
     -3.498498     12.257237     12.257237     24.514474
     -3.488488      9.993116      9.993116     19.986232
     -3.478478      8.037932      8.037932     16.075864
     -3.468468      6.659872      6.659872     13.319744
     -3.458458      6.074846      6.074846     12.149692
     -3.448448      6.366226      6.366226     12.732452
     -3.438438      7.450356      7.450356     14.900713
     -3.428428      9.097344      9.097344     18.194688
     -3.418418     11.005232     11.005232     22.010465
     -3.408408     12.910072     12.910072     25.820143
     -3.398398     14.693802     14.693802     29.387605
     -3.388388     16.439815     16.439815     32.879629
     -3.378378     18.400150     18.400150     36.800300
     -3.368368     20.880138     20.880138     41.760276
     -3.358358     24.092199     24.092199     48.184399
     -3.348348     28.047127     28.047127     56.094254
     -3.338338     32.524265     32.524265     65.048529
     -3.328328     37.112688     37.112688     74.225376
     -3.318318     41.284337     41.284337     82.568674
     -3.308308     44.470279     44.470279     88.940558
     -3.298298     46.145064     46.145064     92.290127
     -3.288288     45.938461     45.938461     91.876922
     -3.278278     43.764424     43.764424     87.528848
     -3.268268     39.907802     39.907802     79.815605
     -3.258258     34.993723     34.993723     69.987446
     -3.248248     29.813664     29.813664     59.627328
     -3.238238     25.069677     25.069677     50.139354
     -3.228228     21.158476     21.158476     42.316951
     -3.218218     18.101464     18.101464     36.202927
     -3.208208     15.644181     15.644181     31.288361
     -3.198198     13.456714     13.456714     26.913428
     -3.188188     11.324879     11.324879     22.649758
     -3.178178      9.248800      9.248800     18.497601
     -3.168168      7.431637      7.431637     14.863275
     -3.158158      6.197676      6.197676     12.395352
     -3.148148      5.894225      5.894225     11.788451
     -3.138138      6.809088      6.809088     13.618177
     -3.128128      9.103656      9.103656     18.207312
     -3.118118     12.749892     12.749892     25.499783
     -3.108108     17.475370     17.475370     34.950741
     -3.098098     22.746867     22.746867     45.493733
     -3.088088     27.831677     27.831677     55.663354
     -3.078078     31.949733     31.949733     63.899467
     -3.068068     34.477983     34.477983     68.955967
     -3.058058     35.124717     35.124717     70.249433
     -3.048048     33.990932     33.990932     67.981863
     -3.038038     31.488097     31.488097     62.976194
     -3.028028     28.158219     28.158219     56.316439
     -3.018018     24.493197     24.493197     48.986394
     -3.008008     20.841432     20.841432     41.682864
     -2.997998     17.428416     17.428416     34.856833
     -2.987988     14.448421     14.448421     28.896842
     -2.977978     12.151476     12.151476     24.302952
     -2.967968     10.866631     10.866631     21.733261
     -2.957958     10.946843     10.946843     21.893685
     -2.947948     12.660246     12.660246     25.320492
     -2.937938     16.070265     16.070265     32.140530
     -2.927928     20.947270     20.947270     41.894540
     -2.917918     26.747349     26.747349     53.494697
     -2.907908     32.681229     32.681229     65.362457
     -2.897898     37.872943     37.872943     75.745886
     -2.887888     41.573030     41.573030     83.146059
     -2.877878     43.357837     43.357837     86.715674
     -2.867868     43.236295     43.236295     86.472590
     -2.857858     41.612782     41.612782     83.225563
     -2.847848     39.113675     39.113675     78.227349
     -2.837838     36.348686     36.348686     72.697371
     -2.827828     33.711342     33.711342     67.422684
     -2.817818     31.304351     31.304351     62.608702
     -2.807808     29.011818     29.011818     58.023636
     -2.797798     26.665064     26.665064     53.330128
     -2.787788     24.204033     24.204033     48.408065
     -2.777778     21.747011     21.747011     43.494022
     -2.767768     19.540446     19.540446     39.080893
     -2.757758     17.832500     17.832500     35.665000
     -2.747748     16.755936     16.755936     33.511872
     -2.737738     16.293174     16.293174     32.586347
     -2.727728     16.337570     16.337570     32.675140
     -2.717718     16.798356     16.798356     33.596711
     -2.707708     17.666899     17.666899     35.333799
     -2.697698     18.991078     18.991078     37.982156
     -2.687688     20.774334     20.774334     41.548669
     -2.677678     22.877701     22.877701     45.755401
     -2.667668     25.009826     25.009826     50.019651
     -2.657658     26.832334     26.832334     53.664668
     -2.647648     28.124023     28.124023     56.248045
     -2.637638     28.898548     28.898548     57.797096
     -2.627628     29.394824     29.394824     58.789649
     -2.617618     29.941951     29.941951     59.883902
     -2.607608     30.781264     30.781264     61.562528
     -2.597598     31.948784     31.948784     63.897568
     -2.587588     33.270838     33.270838     66.541676
     -2.577578     34.448014     34.448014     68.896028
     -2.567568     35.158704     35.158704     70.317407
     -2.557558     35.130149     35.130149     70.260297
     -2.547548     34.175717     34.175717     68.351435
     -2.537538     32.230288     32.230288     64.460575
     -2.527528     29.402374     29.402374     58.804747
     -2.517518     26.019684     26.019684     52.039367
     -2.507508     22.618074     22.618074     45.236148
     -2.497497     19.840787     19.840787     39.681574
     -2.487487     18.265267     18.265267     36.530535
     -2.477477     18.222580     18.222580     36.445160
     -2.467467     19.688143     19.688143     39.376286
     -2.457457     22.295422     22.295422     44.590844
     -2.447447     25.472167     25.472167     50.944333
     -2.437437     28.646278     28.646278     57.292557
     -2.427427     31.437266     31.437266     62.874532
     -2.417417     33.752420     33.752420     67.504841
     -2.407407     35.744742     35.744742     71.489483
     -2.397397     37.649001     37.649001     75.298001
     -2.387387     39.569827     39.569827     79.139654
     -2.377377     41.325869     41.325869     82.651738
     -2.367367     42.438533     42.438533     84.877066
     -2.357357     42.291309     42.291309     84.582619
     -2.347347     40.399812     40.399812     80.799624
     -2.337337     36.667893     36.667893     73.335787
     -2.327327     31.503705     31.503705     63.007409
     -2.317317     25.738544     25.738544     51.477088
     -2.307307     20.390841     20.390841     40.781682
     -2.297297     16.386194     16.386194     32.772387
     -2.287287     14.344790     14.344790     28.689580
     -2.277277     14.492282     14.492282     28.984564
     -2.267267     16.684517     16.684517     33.369033
     -2.257257     20.499455     20.499455     40.998909
     -2.247247     25.348747     25.348747     50.697495
     -2.237237     30.579512     30.579512     61.159024
     -2.227227     35.554427     35.554427     71.108855
     -2.217217     39.708550     39.708550     79.417099
     -2.207207     42.587776     42.587776     85.175552
     -2.197197     43.879439     43.879439     87.758879
     -2.187187     43.445983     43.445983     86.891966
     -2.177177     41.361800     41.361800     82.723599
     -2.167167     37.933348     37.933348     75.866695
     -2.157157     33.668930     33.668930     67.337861
     -2.147147     29.175781     29.175781     58.351562
     -2.137137     25.001269     25.001269     50.002538
     -2.127127     21.479151     21.479151     42.958303
     -2.117117     18.655553     18.655553     37.311106
     -2.107107     16.334812     16.334812     32.669625
     -2.097097     14.220707     14.220707     28.441414
     -2.087087     12.077119     12.077119     24.154239
     -2.077077      9.828350      9.828350     19.656700
     -2.067067      7.562548      7.562548     15.125096
     -2.057057      5.459372      5.459372     10.918744
     -2.047047      3.697439      3.697439      7.394878
     -2.037037      2.392859      2.392859      4.785718
     -2.027027      1.589242      1.589242      3.178485
     -2.017017      1.286620      1.286620      2.573240
     -2.007007      1.479587      1.479587      2.959174
     -1.996997      2.177113      2.177113      4.354226
     -1.986987      3.391320      3.391320      6.782639
     -1.976977      5.101661      5.101661     10.203321
     -1.966967      7.216863      7.216863     14.433727
     -1.956957      9.562518      9.562518     19.125036
     -1.946947     11.911644     11.911644     23.823289
     -1.936937     14.050853     14.050853     28.101706
     -1.926927     15.849268     15.849268     31.698536
     -1.916917     17.290097     17.290097     34.580194
     -1.906907     18.444646     18.444646     36.889292
     -1.896897     19.404164     19.404164     38.808327
     -1.886887     20.210888     20.210888     40.421776
     -1.876877     20.827776     20.827776     41.655552
     -1.866867     21.160463     21.160463     42.320926
     -1.856857     21.115218     21.115218     42.230437
     -1.846847     20.660609     20.660609     41.321219
     -1.836837     19.861609     19.861609     39.723218
     -1.826827     18.867161     18.867161     37.734323
     -1.816817     17.851384     17.851384     35.702769
     -1.806807     16.931739     16.931739     33.863477
     -1.796797     16.105646     16.105646     32.211291
     -1.786787     15.245280     15.245280     30.490560
     -1.776777     14.161601     14.161601     28.323201
     -1.766767     12.707193     12.707193     25.414387
     -1.756757     10.861838     10.861838     21.723675
     -1.746747      8.754990      8.754990     17.509981
     -1.736737      6.618781      6.618781     13.237561
     -1.726727      4.705133      4.705133      9.410265
     -1.716717      3.214634      3.214634      6.429268
     -1.706707      2.267630      2.267630      4.535260
     -1.696697      1.916163      1.916163      3.832325
     -1.686687      2.171055      2.171055      4.342110
     -1.676677      3.014591      3.014591      6.029182
     -1.666667      4.384749      4.384749      8.769497
     -1.656657      6.141202      6.141202     12.282404
     -1.646647      8.042385      8.042385     16.084770
     -1.636637      9.765055      9.765055     19.530111
     -1.626627     10.978933     10.978933     21.957867
