# EIG2DOS: Utility for SIESTA to obtain the electronic density of states
#  E. Artacho, Apr 1999, A. Garcia, Apr 2012
#  Nick R. Papior, Feb 2017
# ------------------------------------------
# Eigenvalues calculated from a non-polarized calculation
# Eigenvalues read from siesta.EIG
# Kpoint weights read from siesta.KP
# Using smearing parameter:   0.0500
# Using 1000 points in the energy range
# Selected bands: 1 to: 2981
# Emin, Emax in file for selected band(s):    -27.0636650    218.3290430
# Nbands, Nspin, Nk   =   2981     1     1
# E_F                 =    -4.2763 eV --> (shifted to ZERO)
# Broadening          =     0.0500 eV
#
#        E            N(up)  (=)   N(down)         Ntot
     -5.000000     46.081349     46.081349     92.162698
     -4.989990     47.556335     47.556335     95.112671
     -4.979980     47.864969     47.864969     95.729938
     -4.969970     47.085549     47.085549     94.171098
     -4.959960     45.346700     45.346700     90.693400
     -4.949950     42.821268     42.821268     85.642536
     -4.939940     39.742806     39.742806     79.485612
     -4.929930     36.432878     36.432878     72.865757
     -4.919920     33.323419     33.323419     66.646838
     -4.909910     30.955078     30.955078     61.910156
     -4.899900     29.927594     29.927594     59.855188
     -4.889890     30.779955     30.779955     61.559909
     -4.879880     33.802176     33.802176     67.604352
     -4.869870     38.830593     38.830593     77.661186
     -4.859860     45.128838     45.128838     90.257676
     -4.849850     51.460757     51.460757    102.921513
     -4.839840     56.390332     56.390332    112.780663
     -4.829830     58.721779     58.721779    117.443558
     -4.819820     57.895087     57.895087    115.790175
     -4.809810     54.152290     54.152290    108.304579
     -4.799800     48.400167     48.400167     96.800333
     -4.789790     41.849738     41.849738     83.699476
     -4.779780     35.613418     35.613418     71.226836
     -4.769770     30.430133     30.430133     60.860265
     -4.759760     26.590324     26.590324     53.180647
     -4.749750     24.022989     24.022989     48.045977
     -4.739740     22.451237     22.451237     44.902473
     -4.729730     21.533119     21.533119     43.066238
     -4.719720     20.948353     20.948353     41.896705
     -4.709710     20.431963     20.431963     40.863926
     -4.699700     19.777630     19.777630     39.555259
     -4.689690     18.839147     18.839147     37.678293
     -4.679680     17.551744     17.551744     35.103487
     -4.669670     15.977101     15.977101     31.954203
     -4.659660     14.352470     14.352470     28.704941
     -4.649650     13.108536     13.108536     26.217072
     -4.639640     12.823428     12.823428     25.646856
     -4.629630     14.100835     14.100835     28.201670
     -4.619620     17.388955     17.388955     34.777910
     -4.609610     22.785373     22.785373     45.570747
     -4.599600     29.895195     29.895195     59.790390
     -4.589590     37.816162     37.816162     75.632324
     -4.579580     45.299562     45.299562     90.599123
     -4.569570     51.072585     51.072585    102.145170
     -4.559560     54.226519     54.226519    108.453038
     -4.549550     54.521171     54.521171    109.042342
     -4.539540     52.470852     52.470852    104.941703
     -4.529530     49.164636     49.164636     98.329272
     -4.519520     45.890447     45.890447     91.780894
     -4.509510     43.716110     43.716110     87.432220
     -4.499499     43.188736     43.188736     86.377472
     -4.489489     44.248243     44.248243     88.496486
     -4.479479     46.351010     46.351010     92.702020
     -4.469469     48.716840     48.716840     97.433679
     -4.459459     50.582601     50.582601    101.165202
     -4.449449     51.374482     51.374482    102.748963
     -4.439439     50.773529     50.773529    101.547058
     -4.429429     48.707334     48.707334     97.414667
     -4.419419     45.322164     45.322164     90.644327
     -4.409409     40.967358     40.967358     81.934715
     -4.399399     36.179482     36.179482     72.358963
     -4.389389     31.625300     31.625300     63.250599
     -4.379379     27.976163     27.976163     55.952325
     -4.369369     25.735445     25.735445     51.470889
     -4.359359     25.088692     25.088692     50.177384
     -4.349349     25.854122     25.854122     51.708244
     -4.339339     27.567928     27.567928     55.135856
     -4.329329     29.670418     29.670418     59.340837
     -4.319319     31.708788     31.708788     63.417575
     -4.309309     33.469849     33.469849     66.939697
     -4.299299     34.997792     34.997792     69.995583
     -4.289289     36.507270     36.507270     73.014540
     -4.279279     38.238726     38.238726     76.477451
     -4.269269     40.310223     40.310223     80.620446
     -4.259259     42.611069     42.611069     85.222137
     -4.249249     44.773283     44.773283     89.546566
     -4.239239     46.246413     46.246413     92.492826
     -4.229229     46.473472     46.473472     92.946944
     -4.219219     45.116024     45.116024     90.232049
     -4.209209     42.230191     42.230191     84.460382
     -4.199199     38.295164     38.295164     76.590328
     -4.189189     34.060661     34.060661     68.121322
     -4.179179     30.277986     30.277986     60.555971
     -4.169169     27.446549     27.446549     54.893097
     -4.159159     25.697452     25.697452     51.394904
     -4.149149     24.856295     24.856295     49.712590
     -4.139139     24.631656     24.631656     49.263312
     -4.129129     24.818457     24.818457     49.636915
     -4.119119     25.408829     25.408829     50.817657
     -4.109109     26.555431     26.555431     53.110862
     -4.099099     28.406694     28.406694     56.813389
     -4.089089     30.901558     30.901558     61.803115
     -4.079079     33.644101     33.644101     67.288201
     -4.069069     35.951790     35.951790     71.903580
     -4.059059     37.084703     37.084703     74.169406
     -4.049049     36.556823     36.556823     73.113647
     -4.039039     34.370217     34.370217     68.740434
     -4.029029     31.045446     31.045446     62.090893
     -4.019019     27.433333     27.433333     54.866666
     -4.009009     24.413118     24.413118     48.826235
     -3.998999     22.632299     22.632299     45.264597
     -3.988989     22.396667     22.396667     44.793335
     -3.978979     23.716085     23.716085     47.432169
     -3.968969     26.426579     26.426579     52.853157
     -3.958959     30.294202     30.294202     60.588405
     -3.948949     35.056340     35.056340     70.112679
     -3.938939     40.421763     40.421763     80.843525
     -3.928929     46.078915     46.078915     92.157829
     -3.918919     51.737042     51.737042    103.474085
     -3.908909     57.176115     57.176115    114.352231
     -3.898899     62.254925     62.254925    124.509849
     -3.888889     66.847288     66.847288    133.694576
     -3.878879     70.730167     70.730167    141.460335
     -3.868869     73.495420     73.495420    146.990841
     -3.858859     74.563008     74.563008    149.126015
     -3.848849     73.328409     73.328409    146.656818
     -3.838839     69.402916     69.402916    138.805831
     -3.828829     62.843777     62.843777    125.687553
     -3.818819     54.259487     54.259487    108.518973
     -3.808809     44.724831     44.724831     89.449662
     -3.798799     35.525793     35.525793     71.051587
     -3.788789     27.829357     27.829357     55.658714
     -3.778779     22.398835     22.398835     44.797671
     -3.768769     19.445054     19.445054     38.890108
     -3.758759     18.642605     18.642605     37.285210
     -3.748749     19.283448     19.283448     38.566897
     -3.738739     20.508514     20.508514     41.017028
     -3.728729     21.552046     21.552046     43.104093
     -3.718719     21.942079     21.942079     43.884159
     -3.708709     21.613954     21.613954     43.227908
     -3.698699     20.909928     20.909928     41.819857
     -3.688689     20.459469     20.459469     40.918939
     -3.678679     20.963870     20.963870     41.927739
     -3.668669     22.941581     22.941581     45.883163
     -3.658659     26.515276     26.515276     53.030552
     -3.648649     31.321400     31.321400     62.642800
     -3.638639     36.586715     36.586715     73.173430
     -3.628629     41.350940     41.350940     82.701880
     -3.618619     44.749771     44.749771     89.499543
     -3.608609     46.246186     46.246186     92.492371
     -3.598599     45.728935     45.728935     91.457869
     -3.588589     43.466692     43.466692     86.933384
     -3.578579     39.969088     39.969088     79.938176
     -3.568569     35.825562     35.825562     71.651124
     -3.558559     31.570523     31.570523     63.141046
     -3.548549     27.590679     27.590679     55.181359
     -3.538539     24.076410     24.076410     48.152820
     -3.528529     21.023416     21.023416     42.046833
     -3.518519     18.291168     18.291168     36.582336
     -3.508509     15.705994     15.705994     31.411988
     -3.498498     13.170028     13.170028     26.340056
     -3.488488     10.727708     10.727708     21.455416
     -3.478478      8.561360      8.561360     17.122721
     -3.468468      6.923290      6.923290     13.846580
     -3.458458      6.038622      6.038622     12.077243
     -3.448448      6.017221      6.017221     12.034442
     -3.438438      6.801085      6.801085     13.602170
     -3.428428      8.160477      8.160477     16.320955
     -3.418418      9.743830      9.743830     19.487659
     -3.408408     11.176563     11.176563     22.353126
     -3.398398     12.185964     12.185964     24.371927
     -3.388388     12.709238     12.709238     25.418476
     -3.378378     12.936848     12.936848     25.873696
     -3.368368     13.264727     13.264727     26.529454
     -3.358358     14.168907     14.168907     28.337814
     -3.348348     16.049964     16.049964     32.099928
     -3.338338     19.100888     19.100888     38.201775
     -3.328328     23.230689     23.230689     46.461378
     -3.318318     28.048659     28.048659     56.097317
     -3.308308     32.903576     32.903576     65.807151
     -3.298298     36.979900     36.979900     73.959799
     -3.288288     39.456956     39.456956     78.913913
     -3.278278     39.715081     39.715081     79.430161
     -3.268268     37.530157     37.530157     75.060314
     -3.258258     33.171246     33.171246     66.342493
     -3.248248     27.340197     27.340197     54.680394
     -3.238238     20.964437     20.964437     41.928875
     -3.228228     14.929210     14.929210     29.858419
     -3.218218      9.861889      9.861889     19.723777
     -3.208208      6.043640      6.043640     12.087281
     -3.198198      3.453220      3.453220      6.906440
     -3.188188      1.891527      1.891527      3.783053
     -3.178178      1.120810      1.120810      2.241621
     -3.168168      0.972763      0.972763      1.945525
     -3.158158      1.409620      1.409620      2.819241
     -3.148148      2.540112      2.540112      5.080224
     -3.138138      4.592746      4.592746      9.185492
     -3.128128      7.842893      7.842893     15.685786
     -3.118118     12.492788     12.492788     24.985576
     -3.108108     18.523688     18.523688     37.047376
     -3.098098     25.570718     25.570718     51.141437
     -3.088088     32.891554     32.891554     65.783108
     -3.078078     39.484211     39.484211     78.968421
     -3.068068     44.348113     44.348113     88.696227
     -3.058058     46.800478     46.800478     93.600955
     -3.048048     46.707739     46.707739     93.415478
     -3.038038     44.513626     44.513626     89.027252
     -3.028028     41.041735     41.041735     82.083470
     -3.018018     37.168029     37.168029     74.336059
     -3.008008     33.524623     33.524623     67.049247
     -2.997998     30.369969     30.369969     60.739937
     -2.987988     27.662556     27.662556     55.325112
     -2.977978     25.268345     25.268345     50.536690
     -2.967968     23.175574     23.175574     46.351148
     -2.957958     21.604476     21.604476     43.208952
     -2.947948     20.963156     20.963156     41.926312
     -2.937938     21.676139     21.676139     43.352277
     -2.927928     23.966524     23.966524     47.933048
     -2.917918     27.689968     27.689968     55.379937
     -2.907908     32.297294     32.297294     64.594587
     -2.897898     36.951639     36.951639     73.903278
     -2.887888     40.763625     40.763625     81.527249
     -2.877878     43.057315     43.057315     86.114630
     -2.867868     43.563019     43.563019     87.126038
     -2.857858     42.460420     42.460420     84.920840
     -2.847848     40.258297     40.258297     80.516594
     -2.837838     37.567874     37.567874     75.135749
     -2.827828     34.872105     34.872105     69.744210
     -2.817818     32.390170     32.390170     64.780340
     -2.807808     30.086016     30.086016     60.172032
     -2.797798     27.797154     27.797154     55.594309
     -2.787788     25.402465     25.402465     50.804929
     -2.777778     22.935029     22.935029     45.870058
     -2.767768     20.584029     20.584029     41.168058
     -2.757758     18.596714     18.596714     37.193429
     -2.747748     17.149295     17.149295     34.298589
     -2.737738     16.270619     16.270619     32.541239
     -2.727728     15.865406     15.865406     31.730812
     -2.717718     15.816902     15.816902     31.633805
     -2.707708     16.094550     16.094550     32.189100
     -2.697698     16.786965     16.786965     33.573930
     -2.687688     18.030275     18.030275     36.060551
     -2.677678     19.875405     19.875405     39.750811
     -2.667668     22.185674     22.185674     44.371348
     -2.657658     24.642877     24.642877     49.285753
     -2.647648     26.870996     26.870996     53.741992
     -2.637638     28.606839     28.606839     57.213677
     -2.627628     29.812134     29.812134     59.624267
     -2.617618     30.658564     30.658564     61.317127
     -2.607608     31.400902     31.400902     62.801805
     -2.597598     32.223411     32.223411     64.446822
     -2.587588     33.150645     33.150645     66.301291
     -2.577578     34.056348     34.056348     68.112696
     -2.567568     34.733742     34.733742     69.467485
     -2.557558     34.964118     34.964118     69.928235
     -2.547548     34.552188     34.552188     69.104376
     -2.537538     33.347727     33.347727     66.695454
     -2.527528     31.290881     31.290881     62.581763
     -2.517518     28.486419     28.486419     56.972838
     -2.507508     25.262636     25.262636     50.525272
     -2.497497     22.153078     22.153078     44.306157
     -2.487487     19.774117     19.774117     39.548234
     -2.477477     18.634787     18.634787     37.269575
     -2.467467     18.962145     18.962145     37.924289
     -2.457457     20.625609     20.625609     41.251218
     -2.447447     23.199079     23.199079     46.398158
     -2.437437     26.135576     26.135576     52.271152
     -2.427427     28.977203     28.977203     57.954407
     -2.417417     31.506275     31.506275     63.012551
     -2.407407     33.769105     33.769105     67.538210
     -2.397397     35.961705     35.961705     71.923410
     -2.387387     38.231704     38.231704     76.463409
     -2.377377     40.493908     40.493908     80.987815
     -2.367367     42.357168     42.357168     84.714337
     -2.357357     43.213984     43.213984     86.427969
     -2.347347     42.468381     42.468381     84.936762
     -2.337337     39.806266     39.806266     79.612531
     -2.327327     35.383752     35.383752     70.767503
     -2.317317     29.843456     29.843456     59.686911
     -2.307307     24.150843     24.150843     48.301685
     -2.297297     19.325599     19.325599     38.651197
     -2.287287     16.179757     16.179757     32.359513
     -2.277277     15.151090     15.151090     30.302180
     -2.267267     16.262650     16.262650     32.525300
     -2.257257     19.186885     19.186885     38.373771
     -2.247247     23.368353     23.368353     46.736706
     -2.237237     28.159406     28.159406     56.318812
     -2.227227     32.934073     32.934073     65.868146
     -2.217217     37.158703     37.158703     74.317406
     -2.207207     40.415366     40.415366     80.830731
     -2.197197     42.395275     42.395275     84.790551
     -2.187187     42.894587     42.894587     85.789174
     -2.177177     41.839171     41.839171     83.678342
     -2.167167     39.335015     39.335015     78.670030
     -2.157157     35.704606     35.704606     71.409212
     -2.147147     31.457340     31.457340     62.914679
     -2.137137     27.171718     27.171718     54.343435
     -2.127127     23.324845     23.324845     46.649690
     -2.117117     20.149768     20.149768     40.299536
     -2.107107     17.596730     17.596730     35.193461
     -2.097097     15.418571     15.418571     30.837143
     -2.087087     13.330191     13.330191     26.660383
     -2.077077     11.154774     11.154774     22.309547
     -2.067067      8.887417      8.887417     17.774833
     -2.057057      6.662362      6.662362     13.324724
     -2.047047      4.662963      4.662963      9.325927
     -2.037037      3.032715      3.032715      6.065430
     -2.027027      1.828231      1.828231      3.656462
     -2.017017      1.021568      1.021568      2.043135
     -2.007007      0.533764      0.533764      1.067527
     -1.996997      0.275041      0.275041      0.550083
     -1.986987      0.175494      0.175494      0.350989
     -1.976977      0.202256      0.202256      0.404511
     -1.966967      0.366455      0.366455      0.732909
     -1.956957      0.723460      0.723460      1.446920
     -1.946947      1.365758      1.365758      2.731517
     -1.936937      2.404199      2.404199      4.808397
     -1.926927      3.934511      3.934511      7.869023
     -1.916917      5.993298      5.993298     11.986597
     -1.906907      8.517659      8.517659     17.035317
     -1.896897     11.328045     11.328045     22.656089
     -1.886887     14.148511     14.148511     28.297021
     -1.876877     16.663077     16.663077     33.326153
     -1.866867     18.590466     18.590466     37.180932
     -1.856857     19.752335     19.752335     39.504670
     -1.846847     20.114730     20.114730     40.229459
     -1.836837     19.792176     19.792176     39.584352
     -1.826827     19.011577     19.011577     38.023154
     -1.816817     18.040229     18.040229     36.080458
     -1.806807     17.094920     17.094920     34.189840
     -1.796797     16.265493     16.265493     32.530985
     -1.786787     15.492377     15.492377     30.984755
     -1.776777     14.619021     14.619021     29.238042
     -1.766767     13.500644     13.500644     27.001287
     -1.756757     12.114894     12.114894     24.229789
     -1.746747     10.614282     10.614282     21.228564
     -1.736737      9.290510      9.290510     18.581020
     -1.726727      8.467296      8.467296     16.934593
     -1.716717      8.372732      8.372732     16.745465
     -1.706707      9.048555      9.048555     18.097111
     -1.696697     10.333871     10.333871     20.667742
     -1.686687     11.927154     11.927154     23.854309
     -1.676677     13.496178     13.496178     26.992357
     -1.666667     14.783877     14.783877     29.567754
     -1.656657     15.660814     15.660814     31.321628
     -1.646647     16.105375     16.105375     32.210751
     -1.636637     16.136934     16.136934     32.273868
     -1.626627     15.756727     15.756727     31.513454
