# EIG2DOS: Utility for SIESTA to obtain the electronic density of states
#  E. Artacho, Apr 1999, A. Garcia, Apr 2012
#  Nick R. Papior, Feb 2017
# ------------------------------------------
# Eigenvalues calculated from a non-polarized calculation
# Eigenvalues read from siesta.EIG
# Kpoint weights read from siesta.KP
# Using smearing parameter:   0.0500
# Using 1000 points in the energy range
# Selected bands: 1 to: 2981
# Emin, Emax in file for selected band(s):    -27.1403417    218.3740900
# Nbands, Nspin, Nk   =   2981     1     1
# E_F                 =    -4.2271 eV --> (shifted to ZERO)
# Broadening          =     0.0500 eV
#
#        E            N(up)  (=)   N(down)         Ntot
     -5.000000     35.070721     35.070721     70.141443
     -4.989990     39.114925     39.114925     78.229849
     -4.979980     42.376119     42.376119     84.752238
     -4.969970     44.335508     44.335508     88.671016
     -4.959960     44.672054     44.672054     89.344107
     -4.949950     43.367017     43.367017     86.734035
     -4.939940     40.720893     40.720893     81.441786
     -4.929930     37.293755     37.293755     74.587511
     -4.919920     33.807875     33.807875     67.615751
     -4.909910     31.045199     31.045199     62.090398
     -4.899900     29.742270     29.742270     59.484540
     -4.889890     30.461981     30.461981     60.923961
     -4.879880     33.433528     33.433528     66.867057
     -4.869870     38.399124     38.399124     76.798247
     -4.859860     44.552811     44.552811     89.105621
     -4.849850     50.655483     50.655483    101.310966
     -4.839840     55.340704     55.340704    110.681407
     -4.829830     57.520032     57.520032    115.040064
     -4.819820     56.722267     56.722267    113.444534
     -4.809810     53.214718     53.214718    106.429436
     -4.799800     47.856652     47.856652     95.713304
     -4.789790     41.765177     41.765177     83.530354
     -4.779780     35.953077     35.953077     71.906154
     -4.769770     31.084680     31.084680     62.169361
     -4.759760     27.411502     27.411502     54.823004
     -4.749750     24.855627     24.855627     49.711253
     -4.739740     23.158281     23.158281     46.316562
     -4.729730     22.015295     22.015295     44.030590
     -4.719720     21.157509     21.157509     42.315018
     -4.709710     20.373982     20.373982     40.747963
     -4.699700     19.503293     19.503293     39.006585
     -4.689690     18.428394     18.428394     36.856787
     -4.679680     17.101609     17.101609     34.203219
     -4.669670     15.601239     15.601239     31.202478
     -4.659660     14.191905     14.191905     28.383811
     -4.649650     13.345034     13.345034     26.690069
     -4.639640     13.683662     13.683662     27.367323
     -4.629630     15.842492     15.842492     31.684983
     -4.619620     20.267144     20.267144     40.534289
     -4.609610     27.006120     27.006120     54.012240
     -4.599600     35.569223     35.569223     71.138446
     -4.589590     44.927383     44.927383     89.854765
     -4.579580     53.697461     53.697461    107.394921
     -4.569570     60.488805     60.488805    120.977609
     -4.559560     64.308548     64.308548    128.617095
     -4.549550     64.873345     64.873345    129.746689
     -4.539540     62.693354     62.693354    125.386708
     -4.529530     58.881500     58.881500    117.763000
     -4.519520     54.757913     54.757913    109.515825
     -4.509510     51.407236     51.407236    102.814471
     -4.499499     49.361294     49.361294     98.722588
     -4.489489     48.516215     48.516215     97.032431
     -4.479479     48.286141     48.286141     96.572282
     -4.469469     47.899279     47.899279     95.798558
     -4.459459     46.700219     46.700219     93.400438
     -4.449449     44.347012     44.347012     88.694024
     -4.439439     40.859961     40.859961     81.719922
     -4.429429     36.550679     36.550679     73.101358
     -4.419419     31.899094     31.899094     63.798189
     -4.409409     27.439945     27.439945     54.879890
     -4.399399     23.683012     23.683012     47.366024
     -4.389389     21.054171     21.054171     42.108342
     -4.379379     19.834353     19.834353     39.668707
     -4.369369     20.094978     20.094978     40.189955
     -4.359359     21.659339     21.659339     43.318678
     -4.349349     24.129470     24.129470     48.258939
     -4.339339     26.993171     26.993171     53.986342
     -4.329329     29.780883     29.780883     59.561766
     -4.319319     32.208467     32.208467     64.416933
     -4.309309     34.243513     34.243513     68.487026
     -4.299299     36.067748     36.067748     72.135497
     -4.289289     37.953239     37.953239     75.906479
     -4.279279     40.101240     40.101240     80.202481
     -4.269269     42.501646     42.501646     85.003293
     -4.259259     44.864872     44.864872     89.729743
     -4.249249     46.662333     46.662333     93.324666
     -4.239239     47.282484     47.282484     94.564968
     -4.229229     46.262668     46.262668     92.525335
     -4.219219     43.507855     43.507855     87.015710
     -4.209209     39.389784     39.389784     78.779569
     -4.199199     34.661144     34.661144     69.322289
     -4.189189     30.208418     30.208418     60.416836
     -4.179179     26.753222     26.753222     53.506444
     -4.169169     24.640125     24.640125     49.280251
     -4.159159     23.801033     23.801033     47.602066
     -4.149149     23.893694     23.893694     47.787387
     -4.139139     24.529223     24.529223     49.058445
     -4.129129     25.470450     25.470450     50.940900
     -4.119119     26.706563     26.706563     53.413126
     -4.109109     28.372458     28.372458     56.744916
     -4.099099     30.557282     30.557282     61.114564
     -4.089089     33.107307     33.107307     66.214613
     -4.079079     35.544054     35.544054     71.088108
     -4.069069     37.170412     37.170412     74.340824
     -4.059059     37.337873     37.337873     74.675747
     -4.049049     35.748985     35.748985     71.497969
     -4.039039     32.635413     32.635413     65.270826
     -4.029029     28.713351     28.713351     57.426702
     -4.019019     24.939524     24.939524     49.879048
     -4.009009     22.195334     22.195334     44.390668
     -3.998999     21.049378     21.049378     42.098756
     -3.988989     21.684052     21.684052     43.368103
     -3.978979     23.971507     23.971507     47.943015
     -3.968969     27.614708     27.614708     55.229416
     -3.958959     32.266445     32.266445     64.532890
     -3.948949     37.588718     37.588718     75.177435
     -3.938939     43.270031     43.270031     86.540062
     -3.928929     49.037293     49.037293     98.074586
     -3.918919     54.675854     54.675854    109.351707
     -3.908909     60.035833     60.035833    120.071666
     -3.898899     64.993348     64.993348    129.986696
     -3.888889     69.364548     69.364548    138.729095
     -3.878879     72.816179     72.816179    145.632359
     -3.868869     74.840719     74.840719    149.681439
     -3.858859     74.843731     74.843731    149.687462
     -3.848849     72.334289     72.334289    144.668578
     -3.838839     67.148463     67.148463    134.296926
     -3.828829     59.606331     59.606331    119.212661
     -3.818819     50.522582     50.522582    101.045165
     -3.808809     41.050502     41.050502     82.101004
     -3.798799     32.408825     32.408825     64.817651
     -3.788789     25.586443     25.586443     51.172886
     -3.778779     21.122023     21.122023     42.244045
     -3.768769     19.019676     19.019676     38.039352
     -3.758759     18.810505     18.810505     37.621010
     -3.748749     19.727020     19.727020     39.454039
     -3.738739     20.934728     20.934728     41.869456
     -3.728729     21.761127     21.761127     43.522254
     -3.718719     21.869452     21.869452     43.738905
     -3.708709     21.337469     21.337469     42.674938
     -3.698699     20.619460     20.619460     41.238920
     -3.688689     20.394022     20.394022     40.788044
     -3.678679     21.331120     21.331120     42.662241
     -3.668669     23.843085     23.843085     47.686171
     -3.658659     27.902497     27.902497     55.804994
     -3.648649     32.999741     32.999741     65.999483
     -3.638639     38.267425     38.267425     76.534849
     -3.628629     42.731274     42.731274     85.462547
     -3.618619     45.590635     45.590635     91.181269
     -3.608609     46.420674     46.420674     92.841348
     -3.598599     45.231968     45.231968     90.463936
     -3.588589     42.393970     42.393970     84.787941
     -3.578579     38.481797     38.481797     76.963593
     -3.568569     34.113608     34.113608     68.227216
     -3.558559     29.819107     29.819107     59.638213
     -3.548549     25.951365     25.951365     51.902730
     -3.538539     22.646246     22.646246     45.292492
     -3.528529     19.838333     19.838333     39.676667
     -3.518519     17.337103     17.337103     34.674205
     -3.508509     14.943331     14.943331     29.886661
     -3.498498     12.560173     12.560173     25.120346
     -3.488488     10.250358     10.250358     20.500717
     -3.478478      8.217208      8.217208     16.434416
     -3.468468      6.724584      6.724584     13.449169
     -3.458458      5.994369      5.994369     11.988737
     -3.448448      6.119869      6.119869     12.239738
     -3.438438      7.019518      7.019518     14.039035
     -3.428428      8.442214      8.442214     16.884427
     -3.418418     10.027401     10.027401     20.054802
     -3.408408     11.411921     11.411921     22.823843
     -3.398398     12.356619     12.356619     24.713239
     -3.388388     12.847163     12.847163     25.694326
     -3.378378     13.122719     13.122719     26.245438
     -3.368368     13.611781     13.611781     27.223562
     -3.358358     14.794959     14.794959     29.589919
     -3.348348     17.044801     17.044801     34.089602
     -3.338338     20.494650     20.494650     40.989300
     -3.328328     24.966851     24.966851     49.933702
     -3.318318     29.967454     29.967454     59.934908
     -3.308308     34.747514     34.747514     69.495028
     -3.298298     38.434868     38.434868     76.869736
     -3.288288     40.232172     40.232172     80.464343
     -3.278278     39.644014     39.644014     79.288029
     -3.268268     36.656030     36.656030     73.312060
     -3.258258     31.780797     31.780797     63.561595
     -3.248248     25.931423     25.931423     51.862847
     -3.238238     20.162925     20.162925     40.325851
     -3.228228     15.382664     15.382664     30.765327
     -3.218218     12.135770     12.135770     24.271540
     -3.208208     10.524981     10.524981     21.049962
     -3.198198     10.264672     10.264672     20.529345
     -3.188188     10.830494     10.830494     21.660988
     -3.178178     11.654812     11.654812     23.309625
     -3.168168     12.319223     12.319223     24.638445
     -3.158158     12.696805     12.696805     25.393611
     -3.148148     13.001866     13.001866     26.003732
     -3.138138     13.723368     13.723368     27.446736
     -3.128128     15.451468     15.451468     30.902937
     -3.118118     18.643732     18.643732     37.287464
     -3.108108     23.404359     23.404359     46.808718
     -3.098098     29.356246     29.356246     58.712493
     -3.088088     35.666644     35.666644     71.333289
     -3.078078     41.240787     41.240787     82.481574
     -3.068068     45.031922     45.031922     90.063845
     -3.058058     46.356020     46.356020     92.712040
     -3.048048     45.082310     45.082310     90.164620
     -3.038038     41.620015     41.620015     83.240030
     -3.028028     36.719880     36.719880     73.439760
     -3.018018     31.199953     31.199953     62.399905
     -3.008008     25.730745     25.730745     51.461489
     -2.997998     20.761302     20.761302     41.522604
     -2.987988     16.575879     16.575879     33.151758
     -2.977978     13.403221     13.403221     26.806442
     -2.967968     11.492475     11.492475     22.984950
     -2.957958     11.110192     11.110192     22.220384
     -2.947948     12.464306     12.464306     24.928611
     -2.937938     15.594092     15.594092     31.188183
     -2.927928     20.274871     20.274871     40.549742
     -2.917918     25.981406     25.981406     51.962812
     -2.907908     31.939905     31.939905     63.879809
     -2.897898     37.273215     37.273215     74.546430
     -2.887888     41.207537     41.207537     82.415075
     -2.877878     43.274078     43.274078     86.548155
     -2.867868     43.426383     43.426383     86.852765
     -2.857858     42.018487     42.018487     84.036974
     -2.847848     39.645803     39.645803     79.291605
     -2.837838     36.913973     36.913973     73.827945
     -2.827828     34.236621     34.236621     68.473243
     -2.817818     31.748904     31.748904     63.497809
     -2.807808     29.364602     29.364602     58.729203
     -2.797798     26.931149     26.931149     53.862298
     -2.787788     24.389710     24.389710     48.779420
     -2.777778     21.852365     21.852365     43.704729
     -2.767768     19.561987     19.561987     39.123973
     -2.757758     17.770826     17.770826     35.541653
     -2.747748     16.619663     16.619663     33.239325
     -2.737738     16.093606     16.093606     32.187211
     -2.727728     16.076970     16.076970     32.153941
     -2.717718     16.462012     16.462012     32.924024
     -2.707708     17.229244     17.229244     34.458489
     -2.697698     18.437143     18.437143     36.874286
     -2.687688     20.125120     20.125120     40.250240
     -2.677678     22.201082     22.201082     44.402164
     -2.667668     24.404246     24.404246     48.808492
     -2.657658     26.387065     26.387065     52.774130
     -2.647648     27.876564     27.876564     55.753127
     -2.637638     28.814394     28.814394     57.628788
     -2.627628     29.382718     29.382718     58.765437
     -2.617618     29.896493     29.896493     59.792986
     -2.607608     30.629225     30.629225     61.258450
     -2.597598     31.676090     31.676090     63.352180
     -2.587588     32.921979     32.921979     65.843958
     -2.577578     34.106099     34.106099     68.212198
     -2.567568     34.920557     34.920557     69.841113
     -2.557558     35.084972     35.084972     70.169945
     -2.547548     34.386632     34.386632     68.773263
     -2.537538     32.715487     32.715487     65.430974
     -2.527528     30.118586     30.118586     60.237172
     -2.517518     26.857762     26.857762     53.715524
     -2.507508     23.420246     23.420246     46.840491
     -2.497497     20.439637     20.439637     40.879275
     -2.487487     18.532258     18.532258     37.064515
     -2.477477     18.107256     18.107256     36.214511
     -2.467467     19.232189     19.232189     38.464379
     -2.457457     21.616233     21.616233     43.232466
     -2.447447     24.723017     24.723017     49.446035
     -2.437437     27.968983     27.968983     55.937967
     -2.427427     30.924991     30.924991     61.849983
     -2.417417     33.434929     33.434929     66.869858
     -2.407407     35.598670     35.598670     71.197341
     -2.397397     37.626229     37.626229     75.252458
     -2.387387     39.631034     39.631034     79.262067
     -2.377377     41.465148     41.465148     82.930296
     -2.367367     42.688363     42.688363     85.376726
     -2.357357     42.704891     42.704891     85.409783
     -2.347347     41.018194     41.018194     82.036387
     -2.337337     37.487899     37.487899     74.975797
     -2.327327     32.463623     32.463623     64.927246
     -2.317317     26.729594     26.729594     53.459188
     -2.307307     21.288466     21.288466     42.576932
     -2.297297     17.085264     17.085264     34.170529
     -2.287287     14.782932     14.782932     29.565864
     -2.277277     14.654330     14.654330     29.308659
     -2.267267     16.591710     16.591710     33.183421
     -2.257257     20.193037     20.193037     40.386074
     -2.247247     24.877215     24.877215     49.754430
     -2.237237     29.994096     29.994096     59.988192
     -2.227227     34.911705     34.911705     69.823409
     -2.217217     39.074908     39.074908     78.149815
     -2.207207     42.039160     42.039160     84.078319
     -2.197197     43.491909     43.491909     86.983819
     -2.187187     43.277692     43.277692     86.555384
     -2.177177     41.433077     41.433077     82.866154
     -2.167167     38.215331     38.215331     76.430662
     -2.157157     34.089451     34.089451     68.178903
     -2.147147     29.643424     29.643424     59.286849
     -2.137137     25.438325     25.438325     50.876651
     -2.127127     21.847910     21.847910     43.695820
     -2.117117     18.964905     18.964905     37.929810
     -2.107107     16.624712     16.624712     33.249424
     -2.097097     14.534202     14.534202     29.068405
     -2.087087     12.435509     12.435509     24.871018
     -2.077077     10.221185     10.221185     20.442370
     -2.067067      7.953866      7.953866     15.907732
     -2.057057      5.801790      5.801790     11.603579
     -2.047047      3.941992      3.941992      7.883983
     -2.037037      2.485501      2.485501      4.971002
     -2.027027      1.451690      1.451690      2.903381
     -2.017017      0.786490      0.786490      1.572980
     -2.007007      0.401259      0.401259      0.802519
     -1.996997      0.209971      0.209971      0.419943
     -1.986987      0.153772      0.153772      0.307545
     -1.976977      0.213020      0.213020      0.426040
     -1.966967      0.411504      0.411504      0.823009
     -1.956957      0.815652      0.815652      1.631304
     -1.946947      1.526853      1.526853      3.053706
     -1.936937      2.662293      2.662293      5.324586
     -1.926927      4.322307      4.322307      8.644615
     -1.916917      6.550453      6.550453     13.100905
     -1.906907      9.301537      9.301537     18.603075
     -1.896897     12.434992     12.434992     24.869984
     -1.886887     15.741076     15.741076     31.482153
     -1.876877     18.989391     18.989391     37.978781
     -1.866867     21.975531     21.975531     43.951063
     -1.856857     24.544108     24.544108     49.088217
     -1.846847     26.584040     26.584040     53.168080
     -1.836837     28.010835     28.010835     56.021670
     -1.826827     28.755161     28.755161     57.510323
     -1.816817     28.765612     28.765612     57.531225
     -1.806807     28.019189     28.019189     56.038377
     -1.796797     26.529537     26.529537     53.059074
     -1.786787     24.350983     24.350983     48.701966
     -1.776777     21.583764     21.583764     43.167528
     -1.766767     18.382488     18.382488     36.764976
     -1.756757     14.959167     14.959167     29.918334
     -1.746747     11.567567     11.567567     23.135134
     -1.736737      8.465104      8.465104     16.930207
     -1.726727      5.865611      5.865611     11.731222
     -1.716717      3.905979      3.905979      7.811957
     -1.706707      2.642692      2.642692      5.285384
     -1.696697      2.075371      2.075371      4.150742
     -1.686687      2.177098      2.177098      4.354195
     -1.676677      2.907372      2.907372      5.814744
     -1.666667      4.195570      4.195570      8.391139
     -1.656657      5.904145      5.904145     11.808290
     -1.646647      7.799655      7.799655     15.599311
     -1.636637      9.563774      9.563774     19.127548
     -1.626627     10.860081     10.860081     21.720161
