# EIG2DOS: Utility for SIESTA to obtain the electronic density of states
#  E. Artacho, Apr 1999, A. Garcia, Apr 2012
#  Nick R. Papior, Feb 2017
# ------------------------------------------
# Eigenvalues calculated from a non-polarized calculation
# Eigenvalues read from siesta.EIG
# Kpoint weights read from siesta.KP
# Using smearing parameter:   0.0500
# Using 1000 points in the energy range
# Selected bands: 1 to: 2981
# Emin, Emax in file for selected band(s):    -27.2168862    218.3608040
# Nbands, Nspin, Nk   =   2981     1     1
# E_F                 =    -4.2494 eV --> (shifted to ZERO)
# Broadening          =     0.0500 eV
#
#        E            N(up)  (=)   N(down)         Ntot
     -5.000000     32.033405     32.033405     64.066810
     -4.989990     36.156275     36.156275     72.312549
     -4.979980     39.962467     39.962467     79.924934
     -4.969970     42.893793     42.893793     85.787585
     -4.959960     44.453649     44.453649     88.907297
     -4.949950     44.364712     44.364712     88.729424
     -4.939940     42.670169     42.670169     85.340338
     -4.929930     39.746818     39.746818     79.493637
     -4.919920     36.240075     36.240075     72.480150
     -4.909910     32.954855     32.954855     65.909711
     -4.899900     30.729059     30.729059     61.458119
     -4.889890     30.291594     30.291594     60.583188
     -4.879880     32.096444     32.096444     64.192889
     -4.869870     36.149655     36.149655     72.299309
     -4.859860     41.893687     41.893687     83.787374
     -4.849850     48.238891     48.238891     96.477782
     -4.839840     53.794838     53.794838    107.589676
     -4.829830     57.258677     57.258677    114.517354
     -4.819820     57.818307     57.818307    115.636614
     -4.809810     55.395658     55.395658    110.791317
     -4.799800     50.622104     50.622104    101.244207
     -4.789790     44.568932     44.568932     89.137863
     -4.779780     38.370194     38.370194     76.740389
     -4.769770     32.905113     32.905113     65.810225
     -4.759760     28.645526     28.645526     57.291051
     -4.749750     25.673248     25.673248     51.346495
     -4.739740     23.798990     23.798990     47.597979
     -4.729730     22.700218     22.700218     45.400436
     -4.719720     22.025620     22.025620     44.051240
     -4.709710     21.454404     21.454404     42.908808
     -4.699700     20.725605     20.725605     41.451209
     -4.689690     19.660799     19.660799     39.321599
     -4.679680     18.197321     18.197321     36.394642
     -4.669670     16.433258     16.433258     32.866516
     -4.659660     14.667226     14.667226     29.334451
     -4.649650     13.404344     13.404344     26.808688
     -4.639640     13.301649     13.301649     26.603298
     -4.629630     15.040492     15.040492     30.080985
     -4.619620     19.135716     19.135716     38.271432
     -4.609610     25.719295     25.719295     51.438589
     -4.599600     34.366569     34.366569     68.733139
     -4.589590     44.052348     44.052348     88.104695
     -4.579580     53.307159     53.307159    106.614318
     -4.569570     60.575523     60.575523    121.151046
     -4.559560     64.677526     64.677526    129.355053
     -4.549550     65.197735     65.197735    130.395471
     -4.539540     62.628238     62.628238    125.256476
     -4.529530     58.188859     58.188859    116.377717
     -4.519520     53.391034     53.391034    106.782068
     -4.509510     49.525027     49.525027     99.050054
     -4.499499     47.274567     47.274567     94.549135
     -4.489489     46.592567     46.592567     93.185133
     -4.479479     46.849705     46.849705     93.699409
     -4.469469     47.157193     47.157193     94.314385
     -4.459459     46.713617     46.713617     93.427233
     -4.449449     45.046328     45.046328     90.092657
     -4.439439     42.088549     42.088549     84.177097
     -4.429429     38.113338     38.113338     76.226676
     -4.419419     33.596411     33.596411     67.192822
     -4.409409     29.082843     29.082843     58.165686
     -4.399399     25.096581     25.096581     50.193162
     -4.389389     22.085961     22.085961     44.171922
     -4.379379     20.375388     20.375388     40.750776
     -4.369369     20.106457     20.106457     40.212914
     -4.359359     21.186095     21.186095     42.372191
     -4.349349     23.282960     23.282960     46.565920
     -4.339339     25.902925     25.902925     51.805851
     -4.329329     28.534108     28.534108     57.068215
     -4.319319     30.809139     30.809139     61.618278
     -4.309309     32.616624     32.616624     65.233248
     -4.299299     34.113693     34.113693     68.227387
     -4.289289     35.632620     35.632620     71.265241
     -4.279279     37.513740     37.513740     75.027481
     -4.269269     39.921252     39.921252     79.842504
     -4.259259     42.707582     42.707582     85.415164
     -4.249249     45.386722     45.386722     90.773443
     -4.239239     47.250714     47.250714     94.501427
     -4.229229     47.610446     47.610446     95.220892
     -4.219219     46.075930     46.075930     92.151860
     -4.209209     42.750334     42.750334     85.500668
     -4.199199     38.234395     38.234395     76.468789
     -4.189189     33.425551     33.425551     66.851103
     -4.179179     29.202492     29.202492     58.404983
     -4.169169     26.144295     26.144295     52.288589
     -4.159159     24.407582     24.407582     48.815163
     -4.149149     23.795093     23.795093     47.590185
     -4.139139     23.953134     23.953134     47.906268
     -4.129129     24.584991     24.584991     49.169983
     -4.119119     25.577417     25.577417     51.154835
     -4.109109     26.989330     26.989330     53.978660
     -4.099099     28.917977     28.917977     57.835954
     -4.089089     31.315591     31.315591     62.631182
     -4.079079     33.860107     33.860107     67.720213
     -4.069069     35.968562     35.968562     71.937124
     -4.059059     36.975855     36.975855     73.951711
     -4.049049     36.409439     36.409439     72.818878
     -4.039039     34.225044     34.225044     68.450089
     -4.029029     30.877062     30.877062     61.754124
     -4.019019     27.182379     27.182379     54.364758
     -4.009009     24.047162     24.047162     48.094325
     -3.998999     22.192243     22.192243     44.384485
     -3.988989     21.995874     21.995874     43.991749
     -3.978979     23.491755     23.491755     46.983509
     -3.968969     26.473883     26.473883     52.947766
     -3.958959     30.622260     30.622260     61.244520
     -3.948949     35.587750     35.587750     71.175500
     -3.938939     41.029189     41.029189     82.058377
     -3.928929     46.633439     46.633439     93.266877
     -3.918919     52.143703     52.143703    104.287405
     -3.908909     57.386661     57.386661    114.773323
     -3.898899     62.263178     62.263178    124.526355
     -3.888889     66.679056     66.679056    133.358112
     -3.878879     70.436669     70.436669    140.873339
     -3.868869     73.151543     73.151543    146.303086
     -3.858859     74.264871     74.264871    148.529742
     -3.848849     73.182344     73.182344    146.364688
     -3.838839     69.501779     69.501779    139.003557
     -3.828829     63.235369     63.235369    126.470738
     -3.818819     54.920618     54.920618    109.841236
     -3.808809     45.556544     45.556544     91.113088
     -3.798799     36.377241     36.377241     72.754483
     -3.788789     28.543711     28.543711     57.087421
     -3.778779     22.863103     22.863103     45.726207
     -3.768769     19.623682     19.623682     39.247364
     -3.758759     18.582542     18.582542     37.165084
     -3.748749     19.090682     19.090682     38.181365
     -3.738739     20.306449     20.306449     40.612898
     -3.728729     21.436916     21.436916     42.873832
     -3.718719     21.949823     21.949823     43.899646
     -3.708709     21.708496     21.708496     43.416992
     -3.698699     20.996525     20.996525     41.993050
     -3.688689     20.419791     20.419791     40.839583
     -3.678679     20.702506     20.702506     41.405011
     -3.668669     22.428130     22.428130     44.856260
     -3.658659     25.805015     25.805015     51.610029
     -3.648649     30.543591     30.543591     61.087182
     -3.638639     35.902754     35.902754     71.805509
     -3.628629     40.899328     40.899328     81.798655
     -3.618619     44.602384     44.602384     89.204768
     -3.608609     46.394557     46.394557     92.789115
     -3.598599     46.102736     46.102736     92.205472
     -3.588589     43.970022     43.970022     87.940045
     -3.578579     40.514379     40.514379     81.028759
     -3.568569     36.352175     36.352175     72.704350
     -3.558559     32.047904     32.047904     64.095809
     -3.548549     28.013734     28.013734     56.027468
     -3.538539     24.459403     24.459403     48.918805
     -3.528529     21.392751     21.392751     42.785501
     -3.518519     18.674398     18.674398     37.348797
     -3.508509     16.117284     16.117284     32.234569
     -3.498498     13.597335     13.597335     27.194670
     -3.488488     11.128589     11.128589     22.257178
     -3.478478      8.870794      8.870794     17.741588
     -3.468468      7.071416      7.071416     14.142832
     -3.458458      5.972915      5.972915     11.945830
     -3.448448      5.723200      5.723200     11.446400
     -3.438438      6.316145      6.316145     12.632291
     -3.428428      7.575329      7.575329     15.150658
     -3.418418      9.186845      9.186845     18.373689
     -3.408408     10.780885     10.780885     21.561770
     -3.398398     12.047327     12.047327     24.094655
     -3.388388     12.849427     12.849427     25.698853
     -3.378378     13.287784     13.287784     26.575568
     -3.368368     13.680214     13.680214     27.360427
     -3.358358     14.460304     14.460304     28.920608
     -3.348348     16.035828     16.035828     32.071656
     -3.338338     18.661272     18.661272     37.322545
     -3.328328     22.359823     22.359823     44.719646
     -3.318318     26.898842     26.898842     53.797685
     -3.308308     31.807652     31.807652     63.615305
     -3.298298     36.436108     36.436108     72.872216
     -3.288288     40.065862     40.065862     80.131724
     -3.278278     42.073722     42.073722     84.147444
     -3.268268     42.105185     42.105185     84.210370
     -3.258258     40.181337     40.181337     80.362673
     -3.248248     36.676335     36.676335     73.352670
     -3.238238     32.169614     32.169614     64.339229
     -3.228228     27.250235     27.250235     54.500470
     -3.218218     22.372960     22.372960     44.745921
     -3.208208     17.820962     17.820962     35.641925
     -3.198198     13.757967     13.757967     27.515934
     -3.188188     10.309013     10.309013     20.618027
     -3.178178      7.617115      7.617115     15.234230
     -3.168168      5.860785      5.860785     11.721569
     -3.158158      5.245525      5.245525     10.491050
     -3.148148      5.981818      5.981818     11.963636
     -3.138138      8.244990      8.244990     16.489980
     -3.128128     12.104741     12.104741     24.209483
     -3.118118     17.428927     17.428927     34.857854
     -3.108108     23.798373     23.798373     47.596747
     -3.098098     30.490919     30.490919     60.981838
     -3.088088     36.579819     36.579819     73.159638
     -3.078078     41.141727     41.141727     82.283455
     -3.068068     43.507181     43.507181     87.014363
     -3.058058     43.450162     43.450162     86.900324
     -3.048048     41.230059     41.230059     82.460119
     -3.038038     37.465805     37.465805     74.931611
     -3.028028     32.902945     32.902945     65.805890
     -3.018018     28.184000     28.184000     56.367999
     -3.008008     23.721954     23.721954     47.443908
     -2.997998     19.713883     19.713883     39.427766
     -2.987988     16.255806     16.255806     32.511612
     -2.977978     13.475189     13.475189     26.950377
     -2.967968     11.604166     11.604166     23.208332
     -2.957958     10.960279     10.960279     21.920558
     -2.947948     11.849746     11.849746     23.699493
     -2.937938     14.436814     14.436814     28.873628
     -2.927928     18.628555     18.628555     37.257110
     -2.917918     24.017684     24.017684     48.035368
     -2.907908     29.913031     29.913031     59.826063
     -2.897898     35.465808     35.465808     70.931615
     -2.887888     39.866986     39.866986     79.733972
     -2.877878     42.555979     42.555979     85.111959
     -2.867868     43.362887     43.362887     86.725774
     -2.857858     42.523063     42.523063     85.046126
     -2.847848     40.552916     40.552916     81.105832
     -2.837838     38.037713     38.037713     76.075425
     -2.827828     35.423644     35.423644     70.847287
     -2.817818     32.903884     32.903884     65.807767
     -2.807808     30.440915     30.440915     60.881830
     -2.797798     27.898706     27.898706     55.797412
     -2.787788     25.204451     25.204451     50.408901
     -2.777778     22.449418     22.449418     44.898837
     -2.767768     19.877373     19.877373     39.754745
     -2.757758     17.775179     17.775179     35.550358
     -2.747748     16.336274     16.336274     32.672547
     -2.737738     15.581306     15.581306     31.162611
     -2.727728     15.383091     15.383091     30.766182
     -2.717718     15.576455     15.576455     31.152911
     -2.707708     16.078249     16.078249     32.156497
     -2.697698     16.934734     16.934734     33.869467
     -2.687688     18.260674     18.260674     36.521349
     -2.677678     20.108528     20.108528     40.217056
     -2.667668     22.358356     22.358356     44.716712
     -2.657658     24.711580     24.711580     49.423160
     -2.647648     26.805504     26.805504     53.611007
     -2.637638     28.383388     28.383388     56.766775
     -2.627628     29.414078     29.414078     58.828157
     -2.617618     30.086347     30.086347     60.172694
     -2.607608     30.685200     30.685200     61.370400
     -2.597598     31.431269     31.431269     62.862538
     -2.587588     32.377455     32.377455     64.754910
     -2.577578     33.404886     33.404886     66.809773
     -2.567568     34.289339     34.289339     68.578677
     -2.557558     34.776477     34.776477     69.552954
     -2.547548     34.628638     34.628638     69.257277
     -2.537538     33.654881     33.654881     67.309761
     -2.527528     31.758736     31.758736     63.517472
     -2.517518     29.012919     29.012919     58.025839
     -2.507508     25.723188     25.723188     51.446375
     -2.497497     22.421518     22.421518     44.843036
     -2.487487     19.756073     19.756073     39.512145
     -2.477477     18.304458     18.304458     36.608916
     -2.467467     18.386312     18.386312     36.772624
     -2.457457     19.959821     19.959821     39.919642
     -2.447447     22.651233     22.651233     45.302466
     -2.437437     25.906851     25.906851     51.813701
     -2.427427     29.201467     29.201467     58.402933
     -2.417417     32.210280     32.210280     64.420560
     -2.407407     34.866335     34.866335     69.732669
     -2.397397     37.278746     37.278746     74.557492
     -2.387387     39.555496     39.555496     79.110992
     -2.377377     41.625013     41.625013     83.250026
     -2.367367     43.156031     43.156031     86.312061
     -2.357357     43.629920     43.629920     87.259841
     -2.347347     42.544023     42.544023     85.088047
     -2.337337     39.655760     39.655760     79.311521
     -2.327327     35.151979     35.151979     70.303957
     -2.317317     29.661515     29.661515     59.323029
     -2.307307     24.103963     24.103963     48.207926
     -2.297297     19.442021     19.442021     38.884042
     -2.287287     16.438324     16.438324     32.876648
     -2.277277     15.498659     15.498659     30.997318
     -2.267267     16.632816     16.632816     33.265632
     -2.257257     19.515667     19.515667     39.031334
     -2.247247     23.605512     23.605512     47.211023
     -2.237237     28.274562     28.274562     56.549124
     -2.227227     32.916934     32.916934     65.833868
     -2.217217     37.014661     37.014661     74.029321
     -2.207207     40.160148     40.160148     80.320297
     -2.197197     42.052195     42.052195     84.104390
     -2.187187     42.494433     42.494433     84.988865
     -2.177177     41.419165     41.419165     82.838331
     -2.167167     38.933494     38.933494     77.866988
     -2.157157     35.352425     35.352425     70.704851
     -2.147147     31.171227     31.171227     62.342453
     -2.137137     26.954459     26.954459     53.908918
     -2.127127     23.172213     23.172213     46.344426
     -2.117117     20.058859     20.058859     40.117718
     -2.107107     17.569478     17.569478     35.138957
     -2.097097     15.458283     15.458283     30.916566
     -2.087087     13.434405     13.434405     26.868809
     -2.077077     11.310232     11.310232     22.620465
     -2.067067      9.070968      9.070968     18.141935
     -2.057057      6.847220      6.847220     13.694441
     -2.047047      4.826497      4.826497      9.652994
     -2.037037      3.161670      3.161670      6.323339
     -2.027027      1.919529      1.919529      3.839058
     -2.017017      1.079447      1.079447      2.158894
     -2.007007      0.565346      0.565346      1.130692
     -1.996997      0.286186      0.286186      0.572372
     -1.986987      0.167850      0.167850      0.335699
     -1.976977      0.171920      0.171920      0.343840
     -1.966967      0.305282      0.305282      0.610563
     -1.956957      0.625648      0.625648      1.251296
     -1.946947      1.243826      1.243826      2.487652
     -1.936937      2.317614      2.317614      4.635227
     -1.926927      4.028881      4.028881      8.057763
     -1.916917      6.537746      6.537746     13.075492
     -1.906907      9.916805      9.916805     19.833611
     -1.896897     14.081401     14.081401     28.162803
     -1.886887     18.742873     18.742873     37.485747
     -1.876877     23.413818     23.413818     46.827636
     -1.866867     27.483214     27.483214     54.966429
     -1.856857     30.355471     30.355471     60.710942
     -1.846847     31.617527     31.617527     63.235054
     -1.836837     31.174383     31.174383     62.348766
     -1.826827     29.291174     29.291174     58.582348
     -1.816817     26.509181     26.509181     53.018361
     -1.806807     23.457983     23.457983     46.915966
     -1.796797     20.640121     20.640121     41.280242
     -1.786787     18.284317     18.284317     36.568634
     -1.776777     16.330920     16.330920     32.661841
     -1.766767     14.544170     14.544170     29.088341
     -1.756757     12.681498     12.681498     25.362995
     -1.746747     10.629435     10.629435     21.258870
     -1.736737      8.447830      8.447830     16.895661
     -1.726727      6.323258      6.323258     12.646516
     -1.716717      4.479188      4.479188      8.958377
     -1.706707      3.099530      3.099530      6.199059
     -1.696697      2.296860      2.296860      4.593720
     -1.686687      2.120307      2.120307      4.240613
     -1.676677      2.574749      2.574749      5.149498
     -1.666667      3.623555      3.623555      7.247110
     -1.656657      5.166834      5.166834     10.333667
     -1.646647      7.012267      7.012267     14.024535
     -1.636637      8.870317      8.870317     17.740634
     -1.626627     10.399517     10.399517     20.799033
