# EIG2DOS: Utility for SIESTA to obtain the electronic density of states
#  E. Artacho, Apr 1999, A. Garcia, Apr 2012
#  Nick R. Papior, Feb 2017
# ------------------------------------------
# Eigenvalues calculated from a non-polarized calculation
# Eigenvalues read from siesta.EIG
# Kpoint weights read from siesta.KP
# Using smearing parameter:   0.0500
# Using 1000 points in the energy range
# Selected bands: 1 to: 2981
# Emin, Emax in file for selected band(s):    -27.0419955    218.3059720
# Nbands, Nspin, Nk   =   2981     1     1
# E_F                 =    -4.3023 eV --> (shifted to ZERO)
# Broadening          =     0.0500 eV
#
#        E            N(up)  (=)   N(down)         Ntot
     -5.000000     43.895966     43.895966     87.791932
     -4.989990     48.555805     48.555805     97.111609
     -4.979980     51.792622     51.792622    103.585244
     -4.969970     53.147332     53.147332    106.294664
     -4.959960     52.464534     52.464534    104.929067
     -4.949950     49.937897     49.937897     99.875793
     -4.939940     46.059931     46.059931     92.119861
     -4.929930     41.512977     41.512977     83.025955
     -4.919920     37.056953     37.056953     74.113906
     -4.909910     33.448586     33.448586     66.897173
     -4.899900     31.382960     31.382960     62.765920
     -4.889890     31.414681     31.414681     62.829361
     -4.879880     33.823960     33.823960     67.647919
     -4.869870     38.447520     38.447520     76.895040
     -4.859860     44.562418     44.562418     89.124835
     -4.849850     50.936107     50.936107    101.872215
     -4.839840     56.099284     56.099284    112.198568
     -4.829830     58.776873     58.776873    117.553745
     -4.819820     58.301696     58.301696    116.603393
     -4.809810     54.817043     54.817043    109.634087
     -4.799800     49.173286     49.173286     98.346572
     -4.789790     42.581073     42.581073     85.162146
     -4.779780     36.197872     36.197872     72.395744
     -4.769770     30.828001     30.828001     61.656003
     -4.759760     26.822656     26.822656     53.645311
     -4.749750     24.151432     24.151432     48.302865
     -4.739740     22.552781     22.552781     45.105562
     -4.729730     21.676581     21.676581     43.353162
     -4.719720     21.176576     21.176576     42.353152
     -4.709710     20.752751     20.752751     41.505501
     -4.699700     20.165112     20.165112     40.330224
     -4.689690     19.243846     19.243846     38.487693
     -4.679680     17.913559     17.913559     35.827118
     -4.669670     16.234229     16.234229     32.468459
     -4.659660     14.442723     14.442723     28.885446
     -4.649650     12.965839     12.965839     25.931678
     -4.639640     12.377688     12.377688     24.755376
     -4.629630     13.290091     13.290091     26.580182
     -4.619620     16.187143     16.187143     32.374286
     -4.609610     21.238394     21.238394     42.476789
     -4.599600     28.147188     28.147188     56.294376
     -4.589590     36.104292     36.104292     72.208585
     -4.579580     43.905143     43.905143     87.810286
     -4.569570     50.237670     50.237670    100.475340
     -4.559560     54.067457     54.067457    108.134913
     -4.549550     54.979050     54.979050    109.958101
     -4.539540     53.324851     53.324851    106.649702
     -4.529530     50.103824     50.103824    100.207648
     -4.519520     46.609903     46.609903     93.219806
     -4.509510     43.991651     43.991651     87.983302
     -4.499499     42.897186     42.897186     85.794373
     -4.489489     43.329615     43.329615     86.659230
     -4.479479     44.740205     44.740205     89.480411
     -4.469469     46.291352     46.291352     92.582704
     -4.459459     47.170540     47.170540     94.341081
     -4.449449     46.842146     46.842146     93.684291
     -4.439439     45.170022     45.170022     90.340045
     -4.429429     42.401554     42.401554     84.803108
     -4.419419     39.048488     39.048488     78.096975
     -4.409409     35.720287     35.720287     71.440574
     -4.399399     32.963495     32.963495     65.926989
     -4.389389     31.144633     31.144633     62.289266
     -4.379379     30.394219     30.394219     60.788438
     -4.369369     30.612324     30.612324     61.224648
     -4.359359     31.524404     31.524404     63.048808
     -4.349349     32.769504     32.769504     65.539008
     -4.339339     33.999804     33.999804     67.999608
     -4.329329     34.969502     34.969502     69.939004
     -4.319319     35.592640     35.592640     71.185280
     -4.309309     35.955536     35.955536     71.911072
     -4.299299     36.280532     36.280532     72.561064
     -4.289289     36.850185     36.850185     73.700371
     -4.279279     37.909046     37.909046     75.818093
     -4.269269     39.562620     39.562620     79.125241
     -4.259259     41.695949     41.695949     83.391899
     -4.249249     43.941934     43.941934     87.883869
     -4.239239     45.733577     45.733577     91.467154
     -4.229229     46.455880     46.455880     92.911760
     -4.219219     45.664477     45.664477     91.328954
     -4.209209     43.282609     43.282609     86.565218
     -4.199199     39.671279     39.671279     79.342557
     -4.189189     35.518122     35.518122     71.036245
     -4.179179     31.587274     31.587274     63.174548
     -4.169169     28.452570     28.452570     56.905139
     -4.159159     26.344262     26.344262     52.688524
     -4.149149     25.171138     25.171138     50.342275
     -4.139139     24.683046     24.683046     49.366091
     -4.129129     24.671795     24.671795     49.343589
     -4.119119     25.100566     25.100566     50.201131
     -4.109109     26.096205     26.096205     52.192411
     -4.099099     27.809345     27.809345     55.618691
     -4.089089     30.216449     30.216449     60.432898
     -4.079079     32.978073     32.978073     65.956146
     -4.069069     35.453638     35.453638     70.907276
     -4.059059     36.898349     36.898349     73.796699
     -4.049049     36.763619     36.763619     73.527239
     -4.039039     34.950639     34.950639     69.901278
     -4.029029     31.880808     31.880808     63.761616
     -4.019019     28.345799     28.345799     56.691599
     -4.009009     25.222195     25.222195     50.444391
     -3.998999     23.200856     23.200856     46.401712
     -3.988989     22.650626     22.650626     45.301252
     -3.978979     23.639256     23.639256     47.278511
     -3.968969     26.043347     26.043347     52.086693
     -3.958959     29.652410     29.652410     59.304820
     -3.948949     34.214768     34.214768     68.429537
     -3.938939     39.439671     39.439671     78.879342
     -3.928929     45.005029     45.005029     90.010058
     -3.918919     50.601103     50.601103    101.202206
     -3.908909     55.990978     55.990978    111.981956
     -3.898899     61.034946     61.034946    122.069893
     -3.888889     65.638524     65.638524    131.277048
     -3.878879     69.636098     69.636098    139.272197
     -3.868869     72.677911     72.677911    145.355822
     -3.858859     74.207491     74.207491    148.414981
     -3.848849     73.581587     73.581587    147.163175
     -3.838839     70.309212     70.309212    140.618424
     -3.828829     64.311327     64.311327    128.622653
     -3.818819     56.073718     56.073718    112.147435
     -3.808809     46.604960     46.604960     93.209919
     -3.798799     37.200546     37.200546     74.401093
     -3.788789     29.102939     29.102939     58.205877
     -3.778779     23.186994     23.186994     46.373988
     -3.768769     19.776157     19.776157     39.552314
     -3.758759     18.630891     18.630891     37.261782
     -3.748749     19.086867     19.086867     38.173733
     -3.738739     20.283131     20.283131     40.566262
     -3.728729     21.412469     21.412469     42.824938
     -3.718719     21.935051     21.935051     43.870102
     -3.708709     21.710297     21.710297     43.420595
     -3.698699     21.017291     21.017291     42.034581
     -3.688689     20.454064     20.454064     40.908127
     -3.678679     20.733851     20.733851     41.467702
     -3.668669     22.429474     22.429474     44.858948
     -3.658659     25.744699     25.744699     51.489398
     -3.648649     30.396955     30.396955     60.793910
     -3.638639     35.665625     35.665625     71.331251
     -3.628629     40.597174     40.597174     81.194349
     -3.618619     44.289235     44.289235     88.578470
     -3.608609     46.139869     46.139869     92.279738
     -3.598599     45.970430     45.970430     91.940860
     -3.588589     43.998274     43.998274     87.996549
     -3.578579     40.704518     40.704518     81.409036
     -3.568569     36.670372     36.670372     73.340743
     -3.558559     32.437184     32.437184     64.874368
     -3.548549     28.410082     28.410082     56.820163
     -3.538539     24.806005     24.806005     49.612011
     -3.528529     21.649477     21.649477     43.298954
     -3.518519     18.822578     18.822578     37.645157
     -3.508509     16.160909     16.160909     32.321817
     -3.498498     13.561238     13.561238     27.122476
     -3.488488     11.053574     11.053574     22.107149
     -3.478478      8.805898      8.805898     17.611796
     -3.468468      7.064200      7.064200     14.128400
     -3.458458      6.059032      6.059032     12.118063
     -3.448448      5.916599      5.916599     11.833198
     -3.438438      6.601804      6.601804     13.203609
     -3.428428      7.907462      7.907462     15.814924
     -3.418418      9.495764      9.495764     18.991527
     -3.408408     10.989491     10.989491     21.978982
     -3.398398     12.093707     12.093707     24.187414
     -3.388388     12.707839     12.707839     25.415679
     -3.378378     12.979718     12.979718     25.959436
     -3.368368     13.270951     13.270951     26.541902
     -3.358358     14.042032     14.042032     28.084063
     -3.348348     15.701923     15.701923     31.403846
     -3.338338     18.476611     18.476611     36.953223
     -3.328328     22.330578     22.330578     44.661156
     -3.318318     26.945082     26.945082     53.890163
     -3.308308     31.743774     31.743774     63.487548
     -3.298298     35.965964     35.965964     71.931929
     -3.288288     38.799625     38.799625     77.599249
     -3.278278     39.571926     39.571926     79.143852
     -3.268268     37.952093     37.952093     75.904186
     -3.258258     34.082882     34.082882     68.165763
     -3.248248     28.565258     28.565258     57.130516
     -3.238238     22.284980     22.284980     44.569960
     -3.228228     16.151232     16.151232     32.302465
     -3.218218     10.860094     10.860094     21.720188
     -3.208208      6.772434      6.772434     13.544867
     -3.198198      3.928514      3.928514      7.857029
     -3.188188      2.157878      2.157878      4.315756
     -3.178178      1.217585      1.217585      2.435171
     -3.168168      0.905835      0.905835      1.811671
     -3.158158      1.128513      1.128513      2.257026
     -3.148148      1.919479      1.919479      3.838958
     -3.138138      3.422457      3.422457      6.844914
     -3.128128      5.839348      5.839348     11.678695
     -3.118118      9.348791      9.348791     18.697583
     -3.108108     14.007205     14.007205     28.014410
     -3.098098     19.659739     19.659739     39.319478
     -3.088088     25.898899     25.898899     51.797798
     -3.078078     32.101344     32.101344     64.202688
     -3.068068     37.545162     37.545162     75.090323
     -3.058058     41.572644     41.572644     83.145288
     -3.048048     43.739385     43.739385     87.478770
     -3.038038     43.896756     43.896756     87.793513
     -3.028028     42.189773     42.189773     84.379545
     -3.018018     38.993579     38.993579     77.987157
     -3.008008     34.832119     34.832119     69.664238
     -2.997998     30.310758     30.310758     60.621515
     -2.987988     26.064691     26.064691     52.129382
     -2.977978     22.703722     22.703722     45.407445
     -2.967968     20.738350     20.738350     41.476701
     -2.957958     20.495609     20.495609     40.991217
     -2.947948     22.053027     22.053027     44.106053
     -2.937938     25.217695     25.217695     50.435390
     -2.927928     29.557063     29.557063     59.114125
     -2.917918     34.467495     34.467495     68.934991
     -2.907908     39.262132     39.262132     78.524265
     -2.897898     43.269607     43.269607     86.539213
     -2.887888     45.942613     45.942613     91.885225
     -2.877878     46.965939     46.965939     93.931878
     -2.867868     46.332505     46.332505     92.665011
     -2.857858     44.345241     44.345241     88.690482
     -2.847848     41.521388     41.521388     83.042776
     -2.837838     38.420849     38.420849     76.841697
     -2.827828     35.465082     35.465082     70.930163
     -2.817818     32.826674     32.826674     65.653349
     -2.807808     30.438931     30.438931     60.877863
     -2.797798     28.114395     28.114395     56.228791
     -2.787788     25.704956     25.704956     51.409912
     -2.777778     23.216430     23.216430     46.432859
     -2.767768     20.819030     20.819030     41.638059
     -2.757758     18.756309     18.756309     37.512619
     -2.747748     17.214062     17.214062     34.428123
     -2.737738     16.232611     16.232611     32.465221
     -2.727728     15.716817     15.716817     31.433634
     -2.717718     15.534450     15.534450     31.068900
     -2.707708     15.634622     15.634622     31.269244
     -2.697698     16.102320     16.102320     32.204639
     -2.687688     17.105170     17.105170     34.210340
     -2.677678     18.760599     18.760599     37.521198
     -2.667668     21.008749     21.008749     42.017497
     -2.657658     23.579393     23.579393     47.158786
     -2.647648     26.084299     26.084299     52.168598
     -2.637638     28.185293     28.185293     56.370585
     -2.627628     29.737171     29.737171     59.474342
     -2.617618     30.820255     30.820255     61.640510
     -2.607608     31.650351     31.650351     63.300702
     -2.597598     32.432132     32.432132     64.864263
     -2.587588     33.248887     33.248887     66.497773
     -2.577578     34.041015     34.041015     68.082031
     -2.567568     34.655511     34.655511     69.311022
     -2.557558     34.908252     34.908252     69.816504
     -2.547548     34.618854     34.618854     69.237708
     -2.537538     33.628004     33.628004     67.256009
     -2.527528     31.835814     31.835814     63.671629
     -2.517518     29.277242     29.277242     58.554484
     -2.507508     26.198924     26.198924     52.397849
     -2.497497     23.071620     23.071620     46.143240
     -2.487487     20.495792     20.495792     40.991583
     -2.477477     19.020688     19.020688     38.041376
     -2.467467     18.954680     18.954680     37.909360
     -2.457457     20.258199     20.258199     40.516398
     -2.447447     22.573516     22.573516     45.147032
     -2.437437     25.380254     25.380254     50.760507
     -2.427427     28.205751     28.205751     56.411501
     -2.417417     30.792993     30.792993     61.585986
     -2.407407     33.147781     33.147781     66.295562
     -2.397397     35.443288     35.443288     70.886576
     -2.387387     37.829070     37.829070     75.658140
     -2.377377     40.240728     40.240728     80.481457
     -2.367367     42.311572     42.311572     84.623145
     -2.357357     43.444018     43.444018     86.888036
     -2.347347     43.023721     43.023721     86.047442
     -2.337337     40.687598     40.687598     81.375197
     -2.327327     36.524631     36.524631     73.049262
     -2.317317     31.115704     31.115704     62.231407
     -2.307307     25.393748     25.393748     50.787495
     -2.297297     20.387001     20.387001     40.774003
     -2.287287     16.951351     16.951351     33.902702
     -2.277277     15.584528     15.584528     31.169056
     -2.267267     16.363967     16.363967     32.727934
     -2.257257     18.997221     18.997221     37.994442
     -2.247247     22.943458     22.943458     45.886916
     -2.237237     27.557994     27.557994     55.115989
     -2.227227     32.218113     32.218113     64.436227
     -2.217217     36.401088     36.401088     72.802176
     -2.207207     39.705512     39.705512     79.411023
     -2.197197     41.833647     41.833647     83.667293
     -2.187187     42.573186     42.573186     85.146373
     -2.177177     41.813998     41.813998     83.627995
     -2.167167     39.603481     39.603481     79.206961
     -2.157157     36.201268     36.201268     72.402536
     -2.147147     32.073669     32.073669     64.147338
     -2.137137     27.793433     27.793433     55.586866
     -2.127127     23.870422     23.870422     47.740844
     -2.117117     20.592350     20.592350     41.184700
     -2.107107     17.960260     17.960260     35.920521
     -2.097097     15.752638     15.752638     31.505276
     -2.087087     13.678571     13.678571     27.357142
     -2.077077     11.533862     11.533862     23.067724
     -2.067067      9.282878      9.282878     18.565756
     -2.057057      7.041302      7.041302     14.082604
     -2.047047      4.991725      4.991725      9.983449
     -2.037037      3.290343      3.290343      6.580685
     -2.027027      2.010820      2.010820      4.021641
     -2.017017      1.138659      1.138659      2.277318
     -2.007007      0.601105      0.601105      1.202209
     -1.996997      0.307768      0.307768      0.615537
     -1.986987      0.183667      0.183667      0.367334
     -1.976977      0.188716      0.188716      0.377432
     -1.966967      0.326229      0.326229      0.652457
     -1.956957      0.644354      0.644354      1.288708
     -1.946947      1.230635      1.230635      2.461270
     -1.936937      2.195776      2.195776      4.391552
     -1.926927      3.642738      3.642738      7.285477
     -1.916917      5.623522      5.623522     11.247045
     -1.906907      8.095986      8.095986     16.191972
     -1.896897     10.900043     10.900043     21.800087
     -1.886887     13.769710     13.769710     27.539419
     -1.876877     16.383710     16.383710     32.767420
     -1.866867     18.440198     18.440198     36.880396
     -1.856857     19.731101     19.731101     39.462201
     -1.846847     20.193183     20.193183     40.386366
     -1.836837     19.921451     19.921451     39.842902
     -1.826827     19.139102     19.139102     38.278205
     -1.816817     18.126697     18.126697     36.253394
     -1.806807     17.126513     17.126513     34.253027
     -1.796797     16.255250     16.255250     32.510501
     -1.786787     15.466354     15.466354     30.932708
     -1.776777     14.587479     14.587479     29.174959
     -1.766767     13.420668     13.420668     26.841336
     -1.756757     11.855788     11.855788     23.711575
     -1.746747      9.939459      9.939459     19.878918
     -1.736737      7.869783      7.869783     15.739567
     -1.726727      5.931720      5.931720     11.863439
     -1.716717      4.417299      4.417299      8.834598
     -1.706707      3.571067      3.571067      7.142135
     -1.696697      3.571724      3.571724      7.143447
     -1.686687      4.530109      4.530109      9.060219
     -1.676677      6.473548      6.473548     12.947097
     -1.666667      9.303192      9.303192     18.606384
     -1.656657     12.742709     12.742709     25.485419
     -1.646647     16.321372     16.321372     32.642743
     -1.636637     19.432538     19.432538     38.865075
     -1.626627     21.475041     21.475041     42.950081
