# EIG2DOS: Utility for SIESTA to obtain the electronic density of states
#  E. Artacho, Apr 1999, A. Garcia, Apr 2012
#  Nick R. Papior, Feb 2017
# ------------------------------------------
# Eigenvalues calculated from a non-polarized calculation
# Eigenvalues read from siesta.EIG
# Kpoint weights read from siesta.KP
# Using smearing parameter:   0.0500
# Using 1000 points in the energy range
# Selected bands: 1 to: 2981
# Emin, Emax in file for selected band(s):    -27.2478506    218.3608010
# Nbands, Nspin, Nk   =   2981     1     1
# E_F                 =    -4.2405 eV --> (shifted to ZERO)
# Broadening          =     0.0500 eV
#
#        E            N(up)  (=)   N(down)         Ntot
     -5.000000     32.738450     32.738450     65.476899
     -4.989990     37.039086     37.039086     74.078172
     -4.979980     40.915173     40.915173     81.830346
     -4.969970     43.757858     43.757858     87.515717
     -4.959960     45.068894     45.068894     90.137788
     -4.949950     44.623221     44.623221     89.246441
     -4.939940     42.553190     42.553190     85.106380
     -4.929930     39.332020     39.332020     78.664039
     -4.919920     35.680353     35.680353     71.360705
     -4.909910     32.439155     32.439155     64.878309
     -4.899900     30.436460     30.436460     60.872920
     -4.889890     30.346211     30.346211     60.692423
     -4.879880     32.529550     32.529550     65.059100
     -4.869870     36.879125     36.879125     73.758251
     -4.859860     42.733738     42.733738     85.467477
     -4.849850     48.946965     48.946965     97.893931
     -4.839840     54.146140     54.146140    108.292280
     -4.829830     57.121275     57.121275    114.242551
     -4.819820     57.196387     57.196387    114.392774
     -4.809810     54.421698     54.421698    108.843397
     -4.799800     49.503519     49.503519     99.007038
     -4.789790     43.515575     43.515575     87.031151
     -4.779780     37.533798     37.533798     75.067596
     -4.769770     32.350089     32.350089     64.700179
     -4.759760     28.352732     28.352732     56.705463
     -4.749750     25.565827     25.565827     51.131653
     -4.739740     23.776698     23.776698     47.553396
     -4.729730     22.672405     22.672405     45.344810
     -4.719720     21.937891     21.937891     43.875782
     -4.709710     21.307534     21.307534     42.615069
     -4.699700     20.587998     20.587998     41.175996
     -4.689690     19.677500     19.677500     39.355000
     -4.679680     18.596690     18.596690     37.193379
     -4.669670     17.524783     17.524783     35.049566
     -4.659660     16.813578     16.813578     33.627156
     -4.649650     16.947027     16.947027     33.894055
     -4.639640     18.432961     18.432961     36.865922
     -4.629630     21.647056     21.647056     43.294112
     -4.619620     26.677235     26.677235     53.354469
     -4.609610     33.223801     33.223801     66.447601
     -4.599600     40.596149     40.596149     81.192297
     -4.589590     47.820345     47.820345     95.640689
     -4.579580     53.842503     53.842503    107.685006
     -4.569570     57.784458     57.784458    115.568916
     -4.559560     59.184111     59.184111    118.368221
     -4.549550     58.142090     58.142090    116.284179
     -4.539540     55.311403     55.311403    110.622805
     -4.529530     51.712779     51.712779    103.425559
     -4.519520     48.423504     48.423504     96.847009
     -4.509510     46.243980     46.243980     92.487961
     -4.499499     45.463922     45.463922     90.927844
     -4.489489     45.814649     45.814649     91.629299
     -4.479479     46.618045     46.618045     93.236089
     -4.469469     47.061905     47.061905     94.123811
     -4.459459     46.485194     46.485194     92.970387
     -4.449449     44.566424     44.566424     89.132847
     -4.439439     41.365351     41.365351     82.730702
     -4.429429     37.239243     37.239243     74.478487
     -4.419419     32.702444     32.702444     65.404889
     -4.409409     28.300026     28.300026     56.600051
     -4.399399     24.529457     24.529457     49.058914
     -4.389389     21.798460     21.798460     43.596921
     -4.379379     20.386036     20.386036     40.772072
     -4.369369     20.390114     20.390114     40.780227
     -4.359359     21.681919     21.681919     43.363838
     -4.349349     23.909957     23.909957     47.819913
     -4.339339     26.582707     26.582707     53.165414
     -4.329329     29.215804     29.215804     58.431608
     -4.319319     31.487232     31.487232     62.974464
     -4.309309     33.332331     33.332331     66.664662
     -4.299299     34.935447     34.935447     69.870894
     -4.289289     36.619150     36.619150     73.238301
     -4.279279     38.671069     38.671069     77.342137
     -4.269269     41.169896     41.169896     82.339792
     -4.259259     43.876399     43.876399     87.752797
     -4.249249     46.243419     46.243419     92.486839
     -4.239239     47.565767     47.565767     95.131534
     -4.229229     47.234705     47.234705     94.469410
     -4.219219     45.001042     45.001042     90.002084
     -4.209209     41.123991     41.123991     82.247982
     -4.199199     36.321069     36.321069     72.642138
     -4.189189     31.528689     31.528689     63.057379
     -4.179179     27.581313     27.581313     55.162626
     -4.169169     24.957653     24.957653     49.915305
     -4.159159     23.701017     23.701017     47.402034
     -4.149149     23.526556     23.526556     47.053112
     -4.139139     24.038796     24.038796     48.077592
     -4.129129     24.942992     24.942992     49.885984
     -4.119119     26.151977     26.151977     52.303954
     -4.109109     27.747058     27.747058     55.494115
     -4.099099     29.820544     29.820544     59.641088
     -4.089089     32.285526     32.285526     64.571051
     -4.079079     34.763321     34.763321     69.526643
     -4.069069     36.631673     36.631673     73.263346
     -4.059059     37.237826     37.237826     74.475652
     -4.049049     36.185097     36.185097     72.370194
     -4.039039     33.547401     33.547401     67.094801
     -4.029029     29.894896     29.894896     59.789793
     -4.019019     26.113886     26.113886     52.227773
     -4.009009     23.113479     23.113479     46.226958
     -3.998999     21.561636     21.561636     43.123273
     -3.988989     21.757970     21.757970     43.515941
     -3.978979     23.661721     23.661721     47.323442
     -3.968969     27.012887     27.012887     54.025773
     -3.958959     31.459587     31.459587     62.919174
     -3.948949     36.638076     36.638076     73.276151
     -3.938939     42.206368     42.206368     84.412735
     -3.928929     47.863258     47.863258     95.726517
     -3.918919     53.373245     53.373245    106.746490
     -3.908909     58.583865     58.583865    117.167729
     -3.898899     63.402676     63.402676    126.805351
     -3.888889     67.718898     67.718898    135.437796
     -3.878879     71.298827     71.298827    142.597653
     -3.868869     73.720358     73.720358    147.440716
     -3.858859     74.410053     74.410053    148.820106
     -3.848849     72.800891     72.800891    145.601783
     -3.838839     68.563022     68.563022    137.126043
     -3.828829     61.810153     61.810153    123.620307
     -3.818819     53.180773     53.180773    106.361546
     -3.808809     43.741835     43.741835     87.483670
     -3.798799     34.739389     34.739389     69.478778
     -3.788789     27.285549     27.285549     54.571097
     -3.778779     22.092140     22.092140     44.184280
     -3.768769     19.333338     19.333338     38.666677
     -3.758759     18.664561     18.664561     37.329121
     -3.748749     19.372921     19.372921     38.745842
     -3.738739     20.604314     20.604314     41.208628
     -3.728729     21.604590     21.604590     43.209180
     -3.718719     21.918442     21.918442     43.836883
     -3.708709     21.501773     21.501773     43.003546
     -3.698699     20.719505     20.719505     41.439010
     -3.688689     20.223042     20.223042     40.446085
     -3.678679     20.731194     20.731194     41.462388
     -3.668669     22.771236     22.771236     45.542473
     -3.658659     26.461800     26.461800     52.923600
     -3.648649     31.419948     31.419948     62.839897
     -3.638639     36.839281     36.839281     73.678562
     -3.628629     41.719800     41.719800     83.439600
     -3.618619     45.162748     45.162748     90.325496
     -3.608609     46.614055     46.614055     93.228110
     -3.598599     45.969732     45.969732     91.939464
     -3.588589     43.528112     43.528112     87.056223
     -3.578579     39.840873     39.840873     79.681746
     -3.568569     35.538351     35.538351     71.076703
     -3.558559     31.183334     31.183334     62.366668
     -3.548549     27.172979     27.172979     54.345957
     -3.538539     23.691171     23.691171     47.382342
     -3.528529     20.715330     20.715330     41.430660
     -3.518519     18.081266     18.081266     36.162532
     -3.508509     15.591877     15.591877     31.183754
     -3.498498     13.130100     13.130100     26.260201
     -3.488488     10.727812     10.727812     21.455623
     -3.478478      8.562478      8.562478     17.124955
     -3.468468      6.889397      6.889397     13.778794
     -3.458458      5.944196      5.944196     11.888393
     -3.448448      5.853962      5.853962     11.707923
     -3.438438      6.582699      6.582699     13.165398
     -3.428428      7.923397      7.923397     15.846795
     -3.418418      9.541602      9.541602     19.083204
     -3.408408     11.067460     11.067460     22.134920
     -3.398398     12.216629     12.216629     24.433258
     -3.388388     12.899866     12.899866     25.799731
     -3.378378     13.273615     13.273615     26.547229
     -3.368368     13.703041     13.703041     27.406082
     -3.358358     14.648452     14.648452     29.296905
     -3.348348     16.521138     16.521138     33.042276
     -3.338338     19.561314     19.561314     39.122628
     -3.328328     23.767322     23.767322     47.534645
     -3.318318     28.874324     28.874324     57.748648
     -3.308308     34.369352     34.369352     68.738703
     -3.298298     39.542874     39.542874     79.085749
     -3.288288     43.592420     43.592420     87.184840
     -3.278278     45.783651     45.783651     91.567302
     -3.268268     45.636429     45.636429     91.272858
     -3.258258     43.067923     43.067923     86.135846
     -3.248248     38.427156     38.427156     76.854313
     -3.238238     32.401733     32.401733     64.803465
     -3.228228     25.837565     25.837565     51.675130
     -3.218218     19.546393     19.546393     39.092786
     -3.208208     14.166757     14.166757     28.333514
     -3.198198     10.106011     10.106011     20.212023
     -3.188188      7.551460      7.551460     15.102920
     -3.178178      6.517675      6.517675     13.035350
     -3.168168      6.898463      6.898463     13.796925
     -3.158158      8.507802      8.507802     17.015603
     -3.148148     11.111163     11.111163     22.222326
     -3.138138     14.454970     14.454970     28.909940
     -3.128128     18.293926     18.293926     36.587852
     -3.118118     22.402946     22.402946     44.805892
     -3.108108     26.559390     26.559390     53.118779
     -3.098098     30.501060     30.501060     61.002121
     -3.088088     33.893799     33.893799     67.787599
     -3.078078     36.352134     36.352134     72.704269
     -3.068068     37.529199     37.529199     75.058398
     -3.058058     37.240657     37.240657     74.481315
     -3.048048     35.550771     35.550771     71.101541
     -3.038038     32.761097     32.761097     65.522194
     -3.028028     29.301000     29.301000     58.602000
     -3.018018     25.582866     25.582866     51.165732
     -3.008008     21.905971     21.905971     43.811941
     -2.997998     18.456283     18.456283     36.912566
     -2.987988     15.384226     15.384226     30.768452
     -2.977978     12.895957     12.895957     25.791913
     -2.967968     11.293542     11.293542     22.587085
     -2.957958     10.936052     10.936052     21.872104
     -2.947948     12.136443     12.136443     24.272886
     -2.937938     15.034687     15.034687     30.069373
     -2.927928     19.493074     19.493074     38.986148
     -2.917918     25.053750     25.053750     50.107499
     -2.907908     30.985874     30.985874     61.971748
     -2.897898     36.426880     36.426880     72.853761
     -2.887888     40.588007     40.588007     81.176015
     -2.877878     42.959776     42.959776     85.919552
     -2.867868     43.439149     43.439149     86.878299
     -2.857858     42.322247     42.322247     84.644493
     -2.847848     40.160742     40.160742     80.321484
     -2.837838     37.541660     37.541660     75.083320
     -2.827828     34.886594     34.886594     69.773188
     -2.817818     32.356136     32.356136     64.712271
     -2.807808     29.891813     29.891813     59.783626
     -2.797798     27.358414     27.358414     54.716829
     -2.787788     24.701125     24.701125     49.402250
     -2.777778     22.030422     22.030422     44.060844
     -2.767768     19.593551     19.593551     39.187102
     -2.757758     17.658541     17.658541     35.317083
     -2.747748     16.386721     16.386721     32.773442
     -2.737738     15.773326     15.773326     31.546652
     -2.727728     15.690361     15.690361     31.380721
     -2.717718     15.998517     15.998517     31.997035
     -2.707708     16.648382     16.648382     33.296764
     -2.697698     17.697266     17.697266     35.394531
     -2.687688     19.225898     19.225898     38.451796
     -2.677678     21.211964     21.211964     42.423928
     -2.667668     23.454507     23.454507     46.909013
     -2.657658     25.615081     25.615081     51.230162
     -2.647648     27.363519     27.363519     54.727038
     -2.637638     28.541177     28.541177     57.082354
     -2.627628     29.237095     29.237095     58.474190
     -2.617618     29.727399     29.727399     59.454799
     -2.607608     30.317146     30.317146     60.634292
     -2.597598     31.182357     31.182357     62.364714
     -2.587588     32.297880     32.297880     64.595760
     -2.577578     33.468979     33.468979     66.937958
     -2.567568     34.418163     34.418163     68.836325
     -2.557558     34.863556     34.863556     69.727111
     -2.547548     34.563282     34.563282     69.126564
     -2.537538     33.347992     33.347992     66.695984
     -2.527528     31.173941     31.173941     62.347882
     -2.517518     28.194225     28.194225     56.388451
     -2.507508     24.801939     24.801939     49.603878
     -2.497497     21.590195     21.590195     43.180391
     -2.487487     19.212671     19.212671     38.425342
     -2.477477     18.187747     18.187747     36.375494
     -2.467467     18.728561     18.728561     37.457122
     -2.457457     20.676559     20.676559     41.353118
     -2.447447     23.571842     23.571842     47.143685
     -2.437437     26.832919     26.832919     53.665838
     -2.427427     29.968909     29.968909     59.937817
     -2.417417     32.730651     32.730651     65.461302
     -2.407407     35.132912     35.132912     70.265824
     -2.397397     37.339236     37.339236     74.678472
     -2.387387     39.467816     39.467816     78.935632
     -2.377377     41.418599     41.418599     82.837197
     -2.367367     42.816431     42.816431     85.632862
     -2.357357     43.112203     43.112203     86.224405
     -2.347347     41.806613     41.806613     83.613225
     -2.337337     38.696923     38.696923     77.393846
     -2.327327     34.030412     34.030412     68.060825
     -2.317317     28.490994     28.490994     56.981989
     -2.307307     23.025336     23.025336     46.050672
     -2.297297     18.586559     18.586559     37.173118
     -2.287287     15.898558     15.898558     31.797116
     -2.277277     15.316163     15.316163     30.632325
     -2.267267     16.802272     16.802272     33.604544
     -2.257257     19.997433     19.997433     39.994865
     -2.247247     24.337859     24.337859     48.675718
     -2.237237     29.180527     29.180527     58.361055
     -2.227227     33.905885     33.905885     67.811771
     -2.217217     37.982546     37.982546     75.965092
     -2.207207     40.993776     40.993776     81.987551
     -2.197197     42.641698     42.641698     85.283396
     -2.187187     42.754322     42.754322     85.508643
     -2.177177     41.312749     41.312749     82.625499
     -2.167167     38.490203     38.490203     76.980405
     -2.157157     34.666548     34.666548     69.333096
     -2.147147     30.376750     30.376750     60.753501
     -2.137137     26.182637     26.182637     52.365275
     -2.127127     22.509541     22.509541     45.019081
     -2.117117     19.525242     19.525242     39.050485
     -2.107107     17.126642     17.126642     34.253285
     -2.097097     15.042226     15.042226     30.084452
     -2.087087     12.993368     12.993368     25.986736
     -2.077077     10.828873     10.828873     21.657747
     -2.067067      8.571707      8.571707     17.143414
     -2.057057      6.373328      6.373328     12.746656
     -2.047047      4.419700      4.419700      8.839400
     -2.037037      2.846300      2.846300      5.692600
     -2.027027      1.698345      1.698345      3.396689
     -2.017017      0.938981      0.938981      1.877961
     -2.007007      0.485152      0.485152      0.970304
     -1.996997      0.247058      0.247058      0.494117
     -1.986987      0.156858      0.156858      0.313715
     -1.976977      0.184478      0.184478      0.368957
     -1.966967      0.345271      0.345271      0.690542
     -1.956957      0.704008      0.704008      1.408016
     -1.946947      1.375028      1.375028      2.750057
     -1.936937      2.513202      2.513202      5.026403
     -1.926927      4.288532      4.288532      8.577064
     -1.916917      6.840946      6.840946     13.681891
     -1.906907     10.220459     10.220459     20.440919
     -1.896897     14.328146     14.328146     28.656293
     -1.886887     18.880145     18.880145     37.760289
     -1.876877     23.416768     23.416768     46.833537
     -1.866867     27.370093     27.370093     54.740186
     -1.856857     30.186243     30.186243     60.372486
     -1.846847     31.474899     31.474899     62.949797
     -1.836837     31.135478     31.135478     62.270956
     -1.826827     29.401763     29.401763     58.803527
     -1.816817     26.769180     26.769180     53.538360
     -1.806807     23.820846     23.820846     47.641692
     -1.796797     21.024518     21.024518     42.049036
     -1.786787     18.595055     18.595055     37.190111
     -1.776777     16.484861     16.484861     32.969722
     -1.766767     14.494360     14.494360     28.988720
     -1.756757     12.430948     12.430948     24.861896
     -1.746747     10.228443     10.228443     20.456887
     -1.736737      7.975838      7.975838     15.951677
     -1.726727      5.863790      5.863790     11.727580
     -1.716717      4.099126      4.099126      8.198252
     -1.706707      2.840082      2.840082      5.680164
     -1.696697      2.176081      2.176081      4.352162
     -1.686687      2.140929      2.140929      4.281857
     -1.676677      2.729765      2.729765      5.459531
     -1.666667      3.895480      3.895480      7.790961
     -1.656657      5.522279      5.522279     11.044558
     -1.646647      7.398037      7.398037     14.796075
     -1.636637      9.217861      9.217861     18.435722
     -1.626627     10.640497     10.640497     21.280993
