# EIG2DOS: Utility for SIESTA to obtain the electronic density of states
#  E. Artacho, Apr 1999, A. Garcia, Apr 2012
#  Nick R. Papior, Feb 2017
# ------------------------------------------
# Eigenvalues calculated from a non-polarized calculation
# Eigenvalues read from siesta.EIG
# Kpoint weights read from siesta.KP
# Using smearing parameter:   0.0500
# Using 1000 points in the energy range
# Selected bands: 1 to: 2981
# Emin, Emax in file for selected band(s):    -27.1306602    218.3415360
# Nbands, Nspin, Nk   =   2981     1     1
# E_F                 =    -4.2682 eV --> (shifted to ZERO)
# Broadening          =     0.0500 eV
#
#        E            N(up)  (=)   N(down)         Ntot
     -5.000000     35.804873     35.804873     71.609747
     -4.989990     38.869230     38.869230     77.738460
     -4.979980     41.402647     41.402647     82.805294
     -4.969970     42.951579     42.951579     85.903159
     -4.959960     43.223851     43.223851     86.447703
     -4.949950     42.160473     42.160473     84.320946
     -4.939940     39.952621     39.952621     79.905242
     -4.929930     37.012100     37.012100     74.024201
     -4.919920     33.916857     33.916857     67.833713
     -4.909910     31.346706     31.346706     62.693412
     -4.899900     30.003235     30.003235     60.006471
     -4.889890     30.491264     30.491264     60.982529
     -4.879880     33.150540     33.150540     66.301080
     -4.869870     37.871558     37.871558     75.743117
     -4.859860     43.982428     43.982428     87.964857
     -4.849850     50.307223     50.307223    100.614446
     -4.839840     55.438219     55.438219    110.876438
     -4.829830     58.152858     58.152858    116.305716
     -4.819820     57.808370     57.808370    115.616740
     -4.809810     54.534572     54.534572    109.069143
     -4.799800     49.138340     49.138340     98.276680
     -4.789790     42.777926     42.777926     85.555852
     -4.779780     36.570775     36.570775     73.141549
     -4.769770     31.303596     31.303596     62.607192
     -4.759760     27.329271     27.329271     54.658542
     -4.749750     24.628896     24.628896     49.257793
     -4.739740     22.954727     22.954727     45.909453
     -4.729730     21.970614     21.970614     43.941228
     -4.719720     21.345405     21.345405     42.690809
     -4.709710     20.795542     20.795542     41.591084
     -4.699700     20.097197     20.097197     40.194394
     -4.689690     19.094835     19.094835     38.189671
     -4.679680     17.726092     17.726092     35.452184
     -4.669670     16.064987     16.064987     32.129974
     -4.659660     14.363892     14.363892     28.727784
     -4.649650     13.061648     13.061648     26.123297
     -4.639640     12.730014     12.730014     25.460028
     -4.629630     13.951271     13.951271     27.902542
     -4.619620     17.146463     17.146463     34.292927
     -4.609610     22.398054     22.398054     44.796108
     -4.599600     29.328147     29.328147     58.656294
     -4.589590     37.096338     37.096338     74.192676
     -4.579580     44.557424     44.557424     89.114848
     -4.569570     50.562894     50.562894    101.125788
     -4.559560     54.317791     54.317791    108.635581
     -4.549550     55.654682     55.654682    111.309365
     -4.539540     55.096829     55.096829    110.193658
     -4.529530     53.661389     53.661389    107.322778
     -4.519520     52.467959     52.467959    104.935918
     -4.509510     52.310402     52.310402    104.620804
     -4.499499     53.370829     53.370829    106.741657
     -4.489489     55.190097     55.190097    110.380193
     -4.479479     56.890729     56.890729    113.781459
     -4.469469     57.536923     57.536923    115.073847
     -4.459459     56.469000     56.469000    112.938001
     -4.449449     53.485561     53.485561    106.971121
     -4.439439     48.837292     48.837292     97.674585
     -4.429429     43.086073     43.086073     86.172147
     -4.419419     36.924783     36.924783     73.849567
     -4.409409     31.035339     31.035339     62.070678
     -4.399399     26.009379     26.009379     52.018757
     -4.389389     22.308008     22.308008     44.616015
     -4.379379     20.223791     20.223791     40.447582
     -4.369369     19.831909     19.831909     39.663817
     -4.359359     20.954095     20.954095     41.908190
     -4.349349     23.176692     23.176692     46.353384
     -4.339339     25.946278     25.946278     51.892556
     -4.329329     28.723527     28.723527     57.447053
     -4.319319     31.137960     31.137960     62.275921
     -4.309309     33.079440     33.079440     66.158880
     -4.299299     34.690164     34.690164     69.380329
     -4.289289     36.263958     36.263958     72.527916
     -4.279279     38.092437     38.092437     76.184875
     -4.269269     40.309495     40.309495     80.618991
     -4.259259     42.783167     42.783167     85.566333
     -4.249249     45.096690     45.096690     90.193380
     -4.239239     46.644747     46.644747     93.289494
     -4.229229     46.834719     46.834719     93.669439
     -4.219219     45.328609     45.328609     90.657218
     -4.209209     42.218940     42.218940     84.437879
     -4.199199     38.041559     38.041559     76.083119
     -4.189189     33.601635     33.601635     67.203270
     -4.179179     29.688736     29.688736     59.377473
     -4.169169     26.818377     26.818377     53.636753
     -4.159159     25.119381     25.119381     50.238763
     -4.149149     24.402875     24.402875     48.805750
     -4.139139     24.354385     24.354385     48.708769
     -4.129129     24.738075     24.738075     49.476149
     -4.119119     25.509481     25.509481     51.018961
     -4.109109     26.785392     26.785392     53.570785
     -4.099099     28.690024     28.690024     57.380049
     -4.089089     31.159754     31.159754     62.319508
     -4.079079     33.819814     33.819814     67.639629
     -4.069069     36.023378     36.023378     72.046757
     -4.059059     37.064322     37.064322     74.128644
     -4.049049     36.474234     36.474234     72.948468
     -4.039039     34.253214     34.253214     68.506429
     -4.029029     30.909380     30.909380     61.818760
     -4.019019     27.285071     27.285071     54.570141
     -4.009009     24.264023     24.264023     48.528045
     -3.998999     22.508282     22.508282     45.016564
     -3.988989     22.335860     22.335860     44.671720
     -3.978979     23.754077     23.754077     47.508154
     -3.968969     26.578319     26.578319     53.156639
     -3.958959     30.543977     30.543977     61.087953
     -3.948949     35.361694     35.361694     70.723387
     -3.938939     40.728457     40.728457     81.456913
     -3.928929     46.338261     46.338261     92.676523
     -3.918919     51.917474     51.917474    103.834948
     -3.908909     57.265928     57.265928    114.531857
     -3.898899     62.258663     62.258663    124.517326
     -3.888889     66.780634     66.780634    133.561267
     -3.878879     70.616752     70.616752    141.233503
     -3.868869     73.365467     73.365467    146.730934
     -3.858859     74.451039     74.451039    148.902078
     -3.848849     73.267450     73.267450    146.534900
     -3.838839     69.415593     69.415593    138.831186
     -3.828829     62.934120     62.934120    125.868240
     -3.818819     54.410232     54.410232    108.820463
     -3.808809     44.902590     44.902590     89.805179
     -3.798799     35.692253     35.692253     71.384506
     -3.788789     27.953621     27.953621     55.907241
     -3.778779     22.465936     22.465936     44.931872
     -3.768769     19.458038     19.458038     38.916076
     -3.758759     18.618498     18.618498     37.236995
     -3.748749     19.245365     19.245365     38.490729
     -3.738739     20.476797     20.476797     40.953594
     -3.728729     21.537037     21.537037     43.074074
     -3.718719     21.940434     21.940434     43.880869
     -3.708709     21.609542     21.609542     43.219084
     -3.698699     20.879290     20.879290     41.758581
     -3.688689     20.380642     20.380642     40.761285
     -3.678679     20.826129     20.826129     41.652258
     -3.668669     22.752712     22.752712     45.505424
     -3.658659     26.302954     26.302954     52.605907
     -3.648649     31.126919     31.126919     62.253839
     -3.638639     36.452445     36.452445     72.904890
     -3.628629     41.306190     41.306190     82.612380
     -3.618619     44.801053     44.801053     89.602107
     -3.608609     46.375996     46.375996     92.751993
     -3.598599     45.903014     45.903014     91.806027
     -3.588589     43.645873     43.645873     87.291747
     -3.578579     40.120589     40.120589     80.241179
     -3.568569     35.930145     35.930145     71.860290
     -3.558559     31.624701     31.624701     63.249402
     -3.548549     27.604971     27.604971     55.209941
     -3.538539     24.070901     24.070901     48.141802
     -3.528529     21.021484     21.021484     42.042968
     -3.518519     18.312298     18.312298     36.624596
     -3.508509     15.759369     15.759369     31.518737
     -3.498498     13.251021     13.251021     26.502041
     -3.488488     10.818717     10.818717     21.637434
     -3.478478      8.636783      8.636783     17.273566
     -3.468468      6.956963      6.956963     13.913925
     -3.458458      6.011610      6.011610     12.023221
     -3.448448      5.924233      5.924233     11.848465
     -3.438438      6.654153      6.654153     13.308306
     -3.428428      7.988582      7.988582     15.977164
     -3.418418      9.587359      9.587359     19.174717
     -3.408408     11.076864     11.076864     22.153727
     -3.398398     12.172538     12.172538     24.345075
     -3.388388     12.788944     12.788944     25.577887
     -3.378378     13.089222     13.089222     26.178445
     -3.368368     13.445156     13.445156     26.890312
     -3.358358     14.318511     14.318511     28.637022
     -3.348348     16.109521     16.109521     32.219041
     -3.338338     19.026163     19.026163     38.052326
     -3.328328     23.006648     23.006648     46.013296
     -3.318318     27.699054     27.699054     55.398107
     -3.308308     32.491200     32.491200     64.982400
     -3.298298     36.593897     36.593897     73.187795
     -3.288288     39.188487     39.188487     78.376974
     -3.278278     39.629388     39.629388     79.258776
     -3.268268     37.647118     37.647118     75.294236
     -3.258258     33.464212     33.464212     66.928424
     -3.248248     27.755274     27.755274     55.510547
     -3.238238     21.454157     21.454157     42.908314
     -3.228228     15.490737     15.490737     30.981474
     -3.218218     10.571183     10.571183     21.142367
     -3.208208      7.079531      7.079531     14.159062
     -3.198198      5.104588      5.104588     10.209177
     -3.188188      4.536563      4.536563      9.073126
     -3.178178      5.165266      5.165266     10.330533
     -3.168168      6.742285      6.742285     13.484571
     -3.158158      9.012410      9.012410     18.024819
     -3.148148     11.742559     11.742559     23.485118
     -3.138138     14.765916     14.765916     29.531832
     -3.128128     18.026757     18.026757     36.053514
     -3.118118     21.586332     21.586332     43.172663
     -3.108108     25.557435     25.557435     51.114870
     -3.098098     29.977106     29.977106     59.954212
     -3.088088     34.676514     34.676514     69.353028
     -3.078078     39.226698     39.226698     78.453397
     -3.068068     43.008062     43.008062     86.016125
     -3.058058     45.385420     45.385420     90.770841
     -3.048048     45.910285     45.910285     91.820569
     -3.038038     44.457020     44.457020     88.914040
     -3.028028     41.238551     41.238551     82.477102
     -3.018018     36.713930     36.713930     73.427861
     -3.008008     31.451290     31.451290     62.902581
     -2.997998     26.016422     26.016422     52.032845
     -2.987988     20.922620     20.922620     41.845239
     -2.977978     16.630894     16.630894     33.261787
     -2.967968     13.562059     13.562059     27.124119
     -2.957958     12.084532     12.084532     24.169064
     -2.947948     12.463589     12.463589     24.927178
     -2.937938     14.782592     14.782592     29.565185
     -2.927928     18.864668     18.864668     37.729336
     -2.917918     24.232498     24.232498     48.464996
     -2.907908     30.141724     30.141724     60.283448
     -2.897898     35.704778     35.704778     71.409556
     -2.887888     40.086472     40.086472     80.172945
     -2.877878     42.713065     42.713065     85.426129
     -2.867868     43.415513     43.415513     86.831027
     -2.857858     42.443375     42.443375     84.886750
     -2.847848     40.337120     40.337120     80.674239
     -2.837838     37.710170     37.710170     75.420339
     -2.827828     35.034448     35.034448     70.068895
     -2.817818     32.520672     32.520672     65.041343
     -2.807808     30.136633     30.136633     60.273265
     -2.797798     27.737545     27.737545     55.475091
     -2.787788     25.228487     25.228487     50.456975
     -2.777778     22.668615     22.668615     45.337231
     -2.767768     20.265414     20.265414     40.530828
     -2.757758     18.272950     18.272950     36.545900
     -2.747748     16.863613     16.863613     33.727226
     -2.737738     16.055700     16.055700     32.111400
     -2.727728     15.741123     15.741123     31.482245
     -2.717718     15.791065     15.791065     31.582130
     -2.707708     16.164352     16.164352     32.328705
     -2.697698     16.939440     16.939440     33.878879
     -2.687688     18.241532     18.241532     36.483063
     -2.677678     20.110037     20.110037     40.220075
     -2.667668     22.398539     22.398539     44.797078
     -2.657658     24.784832     24.784832     49.569664
     -2.647648     26.898234     26.898234     53.796468
     -2.637638     28.491250     28.491250     56.982499
     -2.627628     29.549098     29.549098     59.098196
     -2.617618     30.269389     30.269389     60.538778
     -2.607608     30.929144     30.929144     61.858288
     -2.597598     31.726290     31.726290     63.452581
     -2.587588     32.687908     32.687908     65.375817
     -2.577578     33.679255     33.679255     67.358511
     -2.567568     34.476712     34.476712     68.953424
     -2.557558     34.840752     34.840752     69.681504
     -2.547548     34.555896     34.555896     69.111792
     -2.537538     33.455559     33.455559     66.911119
     -2.527528     31.468590     31.468590     62.937180
     -2.517518     28.693619     28.693619     57.387237
     -2.507508     25.458359     25.458359     50.916719
     -2.497497     22.302461     22.302461     44.604922
     -2.487487     19.855834     19.855834     39.711668
     -2.477477     18.647039     18.647039     37.294078
     -2.467467     18.924178     18.924178     37.848357
     -2.457457     20.573004     20.573004     41.146009
     -2.447447     23.173787     23.173787     46.347574
     -2.437437     26.174280     26.174280     52.348559
     -2.427427     29.102095     29.102095     58.204191
     -2.417417     31.720466     31.720466     63.440931
     -2.407407     34.056185     34.056185     68.112371
     -2.397397     36.287867     36.287867     72.575733
     -2.387387     38.550074     38.550074     77.100148
     -2.377377     40.752584     40.752584     81.505168
     -2.367367     42.511876     42.511876     85.023751
     -2.357357     43.242613     43.242613     86.485227
     -2.347347     42.380852     42.380852     84.761703
     -2.337337     39.643345     39.643345     79.286690
     -2.327327     35.203847     35.203847     70.407693
     -2.317317     29.703387     29.703387     59.406774
     -2.307307     24.089831     24.089831     48.179661
     -2.297297     19.358850     19.358850     38.717700
     -2.287287     16.301752     16.301752     32.603503
     -2.277277     15.343782     15.343782     30.687563
     -2.267267     16.503115     16.503115     33.006230
     -2.257257     19.451571     19.451571     38.903143
     -2.247247     23.634085     23.634085     47.268170
     -2.237237     28.402848     28.402848     56.805697
     -2.227227     33.131413     33.131413     66.262825
     -2.217217     37.286856     37.286856     74.573712
     -2.207207     40.455331     40.455331     80.910661
     -2.197197     42.337145     42.337145     84.674290
     -2.187187     42.742301     42.742301     85.484603
     -2.177177     41.612274     41.612274     83.224548
     -2.167167     39.065496     39.065496     78.130991
     -2.157157     35.429278     35.429278     70.858555
     -2.147147     31.208637     31.208637     62.417274
     -2.137137     26.970641     26.970641     53.941283
     -2.127127     23.178515     23.178515     46.357029
     -2.117117     20.053636     20.053636     40.107272
     -2.107107     17.539512     17.539512     35.079024
     -2.097097     15.387382     15.387382     30.774763
     -2.087087     13.314108     13.314108     26.628217
     -2.077077     11.146307     11.146307     22.292614
     -2.067067      8.882342      8.882342     17.764685
     -2.057057      6.658764      6.658764     13.317529
     -2.047047      4.660183      4.660183      9.320367
     -2.037037      3.030580      3.030580      6.061160
     -2.027027      1.826625      1.826625      3.653250
     -2.017017      1.020219      1.020219      2.040439
     -2.007007      0.532081      0.532081      1.064161
     -1.996997      0.271814      0.271814      0.543627
     -1.986987      0.168356      0.168356      0.336711
     -1.976977      0.186906      0.186906      0.373812
     -1.966967      0.335890      0.335890      0.671780
     -1.956957      0.667797      0.667797      1.335595
     -1.946947      1.273526      1.273526      2.547052
     -1.936937      2.265823      2.265823      4.531647
     -1.926927      3.747818      3.747818      7.495635
     -1.916917      5.769234      5.769234     11.538467
     -1.906907      8.283004      8.283004     16.566007
     -1.896897     11.121877     11.121877     22.243754
     -1.886887     14.011570     14.011570     28.023139
     -1.876877     16.623252     16.623252     33.246504
     -1.866867     18.651200     18.651200     37.302401
     -1.856857     19.891434     19.891434     39.782868
     -1.846847     20.298260     20.298260     40.596520
     -1.836837     20.003275     20.003275     40.006550
     -1.826827     19.289138     19.289138     38.578275
     -1.816817     18.518253     18.518253     37.036507
     -1.806807     18.029130     18.029130     36.058261
     -1.796797     18.029802     18.029802     36.059605
     -1.786787     18.527512     18.527512     37.055023
     -1.776777     19.324590     19.324590     38.649179
     -1.766767     20.083163     20.083163     40.166326
     -1.756757     20.432217     20.432217     40.864434
     -1.746747     20.077462     20.077462     40.154924
     -1.736737     18.881355     18.881355     37.762709
     -1.726727     16.897282     16.897282     33.794565
     -1.716717     14.356511     14.356511     28.713021
     -1.706707     11.615726     11.615726     23.231451
     -1.696697      9.079557      9.079557     18.159114
     -1.686687      7.116902      7.116902     14.233803
     -1.676677      5.988925      5.988925     11.977850
     -1.666667      5.799708      5.799708     11.599415
     -1.656657      6.473358      6.473358     12.946716
     -1.646647      7.760537      7.760537     15.521074
     -1.636637      9.281004      9.281004     18.562008
     -1.626627     10.607149     10.607149     21.214298
