# EIG2DOS: Utility for SIESTA to obtain the electronic density of states
#  E. Artacho, Apr 1999, A. Garcia, Apr 2012
#  Nick R. Papior, Feb 2017
# ------------------------------------------
# Eigenvalues calculated from a non-polarized calculation
# Eigenvalues read from siesta.EIG
# Kpoint weights read from siesta.KP
# Using smearing parameter:   0.0500
# Using 1000 points in the energy range
# Selected bands: 1 to: 2981
# Emin, Emax in file for selected band(s):    -27.0426168    218.3065650
# Nbands, Nspin, Nk   =   2981     1     1
# E_F                 =    -4.3030 eV --> (shifted to ZERO)
# Broadening          =     0.0500 eV
#
#        E            N(up)  (=)   N(down)         Ntot
     -5.000000     41.764453     41.764453     83.528907
     -4.989990     46.766846     46.766846     93.533693
     -4.979980     50.687373     50.687373    101.374746
     -4.969970     52.947376     52.947376    105.894751
     -4.959960     53.195740     53.195740    106.391481
     -4.949950     51.423896     51.423896    102.847793
     -4.939940     47.986315     47.986315     95.972630
     -4.929930     43.528525     43.528525     87.057050
     -4.919920     38.865413     38.865413     77.730826
     -4.909910     34.859015     34.859015     69.718030
     -4.899900     32.314869     32.314869     64.629739
     -4.889890     31.876388     31.876388     63.752776
     -4.879880     33.886749     33.886749     67.773497
     -4.869870     38.226980     38.226980     76.453961
     -4.859860     44.203727     44.203727     88.407454
     -4.849850     50.593734     50.593734    101.187469
     -4.839840     55.907131     55.907131    111.814262
     -4.829830     58.816235     58.816235    117.632470
     -4.819820     58.581549     58.581549    117.163099
     -4.809810     55.277817     55.277817    110.555634
     -4.799800     49.713569     49.713569     99.427139
     -4.789790     43.095053     43.095053     86.190107
     -4.779780     36.607530     36.607530     73.215060
     -4.769770     31.099453     31.099453     62.198905
     -4.759760     26.965345     26.965345     53.930691
     -4.749750     24.205641     24.205641     48.411282
     -4.739740     22.572420     22.572420     45.144840
     -4.729730     21.712446     21.712446     43.424892
     -4.719720     21.263266     21.263266     42.526533
     -4.709710     20.901536     20.901536     41.803073
     -4.699700     20.364001     20.364001     40.728002
     -4.689690     19.463912     19.463912     38.927824
     -4.679680     18.118000     18.118000     36.236000
     -4.669670     16.385597     16.385597     32.771195
     -4.659660     14.505492     14.505492     29.010984
     -4.649650     12.905200     12.905200     25.810400
     -4.639640     12.158874     12.158874     24.317749
     -4.629630     12.883422     12.883422     25.766844
     -4.619620     15.581200     15.581200     31.162400
     -4.609610     20.458044     20.458044     40.916087
     -4.599600     27.267215     27.267215     54.534430
     -4.589590     35.247256     35.247256     70.494511
     -4.579580     43.216861     43.216861     86.433721
     -4.569570     49.844849     49.844849     99.689697
     -4.559560     54.033660     54.033660    108.067319
     -4.549550     55.279623     55.279623    110.559245
     -4.539540     53.854205     53.854205    107.708410
     -4.529530     50.712908     50.712908    101.425816
     -4.519520     47.156893     47.156893     94.313787
     -4.509510     44.383687     44.383687     88.767373
     -4.499499     43.107534     43.107534     86.215069
     -4.489489     43.387892     43.387892     86.775785
     -4.479479     44.704989     44.704989     89.409978
     -4.469469     46.219211     46.219211     92.438421
     -4.459459     47.092993     47.092993     94.185986
     -4.449449     46.756108     46.756108     93.512215
     -4.439439     45.042117     45.042117     90.084233
     -4.429429     42.183909     42.183909     84.367818
     -4.419419     38.702118     38.702118     77.404236
     -4.409409     35.239894     35.239894     70.479788
     -4.399399     32.394581     32.394581     64.789162
     -4.389389     30.583086     30.583086     61.166173
     -4.379379     29.963357     29.963357     59.926714
     -4.369369     30.422733     30.422733     60.845466
     -4.359359     31.632369     31.632369     63.264738
     -4.349349     33.152930     33.152930     66.305859
     -4.339339     34.562856     34.562856     69.125712
     -4.329329     35.573081     35.573081     71.146162
     -4.319319     36.096279     36.096279     72.192559
     -4.309309     36.253993     36.253993     72.507986
     -4.299299     36.324647     36.324647     72.649294
     -4.289289     36.650545     36.650545     73.301090
     -4.279279     37.526873     37.526873     75.053746
     -4.269269     39.093582     39.093582     78.187164
     -4.259259     41.251063     41.251063     82.502126
     -4.249249     43.627923     43.627923     87.255846
     -4.239239     45.634164     45.634164     91.268329
     -4.229229     46.615832     46.615832     93.231663
     -4.219219     46.079329     46.079329     92.158658
     -4.209209     43.897837     43.897837     87.795675
     -4.199199     40.393508     40.393508     80.787016
     -4.189189     36.237184     36.237184     72.474367
     -4.179179     32.203077     32.203077     64.406154
     -4.169169     28.897832     28.897832     57.795665
     -4.159159     26.595272     26.595272     53.190545
     -4.149149     25.243433     25.243433     50.486866
     -4.139139     24.614874     24.614874     49.229749
     -4.129129     24.503021     24.503021     49.006042
     -4.119119     24.856682     24.856682     49.713364
     -4.109109     25.785261     25.785261     51.570522
     -4.099099     27.433639     27.433639     54.867278
     -4.089089     29.792509     29.792509     59.585018
     -4.079079     32.552069     32.552069     65.104138
     -4.069069     35.099905     35.099905     70.199810
     -4.059059     36.697624     36.697624     73.395248
     -4.049049     36.770396     36.770396     73.540791
     -4.039039     35.167223     35.167223     70.334446
     -4.029029     32.252966     32.252966     64.505932
     -4.019019     28.782511     28.782511     57.565022
     -4.009009     25.628316     25.628316     51.256632
     -3.998999     23.505584     23.505584     47.011169
     -3.988989     22.819741     22.819741     45.639482
     -3.978979     23.670322     23.670322     47.340643
     -3.968969     25.952151     25.952151     51.904302
     -3.958959     29.460456     29.460456     58.920912
     -3.948949     33.942666     33.942666     67.885332
     -3.938939     39.105180     39.105180     78.210359
     -3.928929     44.622265     44.622265     89.244529
     -3.918919     50.179673     50.179673    100.359346
     -3.908909     55.537225     55.537225    111.074451
     -3.898899     60.558023     60.558023    121.116047
     -3.888889     65.160607     65.160607    130.321214
     -3.878879     69.201295     69.201295    138.402589
     -3.868869     72.352395     72.352395    144.704790
     -3.858859     74.066509     74.066509    148.133018
     -3.848849     73.685867     73.685867    147.371735
     -3.838839     70.679978     70.679978    141.359955
     -3.828829     64.915332     64.915332    129.830664
     -3.818819     56.825879     56.825879    113.651758
     -3.808809     47.388425     47.388425     94.776851
     -3.798799     37.896687     37.896687     75.793375
     -3.788789     29.620543     29.620543     59.241087
     -3.778779     23.481709     23.481709     46.963418
     -3.768769     19.855945     19.855945     39.711890
     -3.758759     18.548064     18.548064     37.096128
     -3.748749     18.920324     18.920324     37.840649
     -3.738739     20.115758     20.115758     40.231517
     -3.728729     21.308985     21.308985     42.617969
     -3.718719     21.925408     21.925408     43.850816
     -3.708709     21.782847     21.782847     43.565693
     -3.698699     21.123976     21.123976     42.247953
     -3.688689     20.526904     20.526904     41.053807
     -3.678679     20.708403     20.708403     41.416806
     -3.668669     22.267998     22.267998     44.535995
     -3.658659     25.450792     25.450792     50.901585
     -3.648649     30.015806     30.015806     60.031612
     -3.638639     35.269557     35.269557     70.539115
     -3.628629     40.262620     40.262620     80.525240
     -3.618619     44.075035     44.075035     88.150071
     -3.608609     46.075280     46.075280     92.150560
     -3.598599     46.055253     46.055253     92.110506
     -3.588589     44.211135     44.211135     88.422270
     -3.578579     41.012801     41.012801     82.025601
     -3.568569     37.037554     37.037554     74.075109
     -3.558559     32.827480     32.827480     65.654961
     -3.548549     28.792405     28.792405     57.584811
     -3.538539     25.158103     25.158103     50.316206
     -3.528529     21.960636     21.960636     43.921272
     -3.518519     19.092612     19.092612     38.185225
     -3.508509     16.395053     16.395053     32.790106
     -3.498498     13.763358     13.763358     27.526717
     -3.488488     11.221258     11.221258     22.442517
     -3.478478      8.929783      8.929783     17.859567
     -3.468468      7.131501      7.131501     14.263003
     -3.458458      6.059486      6.059486     12.118971
     -3.448448      5.848575      5.848575     11.697150
     -3.438438      6.476566      6.476566     12.953132
     -3.428428      7.749822      7.749822     15.499644
     -3.418418      9.339821      9.339821     18.679643
     -3.408408     10.869479     10.869479     21.738958
     -3.398398     12.032223     12.032223     24.064447
     -3.388388     12.705687     12.705687     25.411373
     -3.378378     13.011619     13.011619     26.023237
     -3.368368     13.289171     13.289171     26.578343
     -3.358358     13.986859     13.986859     27.973719
     -3.348348     15.516150     15.516150     31.032301
     -3.338338     18.121334     18.121334     36.242667
     -3.328328     21.800324     21.800324     43.600649
     -3.318318     26.279473     26.279473     52.558946
     -3.308308     31.030570     31.030570     62.061140
     -3.298298     35.329422     35.329422     70.658844
     -3.288288     38.371986     38.371986     76.743971
     -3.278278     39.454596     39.454596     78.909192
     -3.268268     38.181477     38.181477     76.362954
     -3.258258     34.616996     34.616996     69.233993
     -3.248248     29.298436     29.298436     58.596872
     -3.238238     23.083995     23.083995     46.167990
     -3.228228     16.896021     16.896021     33.792043
     -3.218218     11.472126     11.472126     22.944252
     -3.208208      7.222569      7.222569     14.445139
     -3.198198      4.227207      4.227207      8.454413
     -3.188188      2.337104      2.337104      4.674209
     -3.178178      1.313927      1.313927      2.627854
     -3.168168      0.949961      0.949961      1.899922
     -3.158158      1.141868      1.141868      2.283736
     -3.148148      1.916592      1.916592      3.833183
     -3.138138      3.416980      3.416980      6.833960
     -3.128128      5.852310      5.852310     11.704620
     -3.118118      9.416956      9.416956     18.833911
     -3.108108     14.187552     14.187552     28.375105
     -3.098098     20.024131     20.024131     40.048262
     -3.088088     26.513825     26.513825     53.027650
     -3.078078     32.993778     32.993778     65.987556
     -3.068068     38.666167     38.666167     77.332333
     -3.058058     42.779456     42.779456     85.558911
     -3.048048     44.815520     44.815520     89.631040
     -3.038038     44.613771     44.613771     89.227543
     -3.028028     42.389848     42.389848     84.779696
     -3.018018     38.654786     38.654786     77.309573
     -3.008008     34.081942     34.081942     68.163884
     -2.997998     29.378528     29.378528     58.757055
     -2.987988     25.194770     25.194770     50.389540
     -2.977978     22.069160     22.069160     44.138320
     -2.967968     20.390404     20.390404     40.780807
     -2.957958     20.364120     20.364120     40.728241
     -2.947948     21.990021     21.990021     43.980042
     -2.937938     25.062129     25.062129     50.124258
     -2.927928     29.195262     29.195262     58.390525
     -2.917918     33.869187     33.869187     67.738374
     -2.907908     38.482893     38.482893     76.965786
     -2.897898     42.423471     42.423471     84.846941
     -2.887888     45.159037     45.159037     90.318074
     -2.877878     46.349089     46.349089     92.698178
     -2.867868     45.936722     45.936722     91.873444
     -2.857858     44.171480     44.171480     88.342961
     -2.847848     41.530518     41.530518     83.061037
     -2.837838     38.554714     38.554714     77.109429
     -2.827828     35.666054     35.666054     71.332107
     -2.817818     33.049581     33.049581     66.099162
     -2.807808     30.653764     30.653764     61.307527
     -2.797798     28.302278     28.302278     56.604556
     -2.787788     25.852230     25.852230     51.704460
     -2.777778     23.311474     23.311474     46.622947
     -2.767768     20.853762     20.853762     41.707523
     -2.757758     18.730499     18.730499     37.460997
     -2.747748     17.137907     17.137907     34.275814
     -2.737738     16.123402     16.123402     32.246804
     -2.727728     15.589223     15.589223     31.178445
     -2.717718     15.389096     15.389096     30.778192
     -2.707708     15.452720     15.452720     30.905440
     -2.697698     15.852367     15.852367     31.704734
     -2.687688     16.761160     16.761160     33.522321
     -2.677678     18.323215     18.323215     36.646430
     -2.667668     20.516933     20.516933     41.033866
     -2.657658     23.103158     23.103158     46.206316
     -2.647648     25.699740     25.699740     51.399481
     -2.637638     27.943733     27.943733     55.887467
     -2.627628     29.644801     29.644801     59.289601
     -2.617618     30.838975     30.838975     61.677949
     -2.607608     31.718110     31.718110     63.436221
     -2.597598     32.490365     32.490365     64.980729
     -2.587588     33.262901     33.262901     66.525802
     -2.577578     34.006511     34.006511     68.013021
     -2.567568     34.593913     34.593913     69.187826
     -2.557558     34.857706     34.857706     69.715412
     -2.547548     34.624756     34.624756     69.249512
     -2.537538     33.731990     33.731990     67.463979
     -2.527528     32.061412     32.061412     64.122825
     -2.517518     29.615078     29.615078     59.230155
     -2.507508     26.599453     26.599453     53.198906
     -2.497497     23.453015     23.453015     46.906030
     -2.487487     20.767611     20.767611     41.535221
     -2.477477     19.114848     19.114848     38.229696
     -2.467467     18.850269     18.850269     37.700538
     -2.457457     19.988917     19.988917     39.977834
     -2.447447     22.214541     22.214541     44.429083
     -2.437437     25.020690     25.020690     50.041379
     -2.427427     27.918876     27.918876     55.837752
     -2.417417     30.616616     30.616616     61.233233
     -2.407407     33.081392     33.081392     66.162784
     -2.397397     35.460571     35.460571     70.921142
     -2.387387     37.897963     37.897963     75.795927
     -2.377377     40.341384     40.341384     80.682768
     -2.367367     42.445125     42.445125     84.890250
     -2.357357     43.629787     43.629787     87.259575
     -2.347347     43.287092     43.287092     86.574185
     -2.337337     41.044216     41.044216     82.088431
     -2.327327     36.967941     36.967941     73.935882
     -2.317317     31.613552     31.613552     63.227104
     -2.307307     25.895570     25.895570     51.791140
     -2.297297     20.837947     20.837947     41.675895
     -2.287287     17.306480     17.306480     34.612961
     -2.277277     15.817004     15.817004     31.634009
     -2.267267     16.465245     16.465245     32.930491
     -2.257257     18.971731     18.971731     37.943461
     -2.247247     22.802548     22.802548     45.605095
     -2.237237     27.317090     27.317090     54.634180
     -2.227227     31.898218     31.898218     63.796436
     -2.217217     36.032639     36.032639     72.065278
     -2.207207     39.330714     39.330714     78.661427
     -2.197197     41.503570     41.503570     83.007140
     -2.187187     42.338231     42.338231     84.676461
     -2.177177     41.710045     41.710045     83.420089
     -2.167167     39.639446     39.639446     79.278892
     -2.157157     36.354663     36.354663     72.709326
     -2.147147     32.297971     32.297971     64.595942
     -2.137137     28.035320     28.035320     56.070640
     -2.127127     24.089375     24.089375     48.178750
     -2.117117     20.773320     20.773320     41.546640
     -2.107107     18.113605     18.113605     36.227209
     -2.097097     15.902456     15.902456     31.804911
     -2.087087     13.846612     13.846612     27.693225
     -2.077077     11.727689     11.727689     23.455378
     -2.067067      9.493374      9.493374     18.986748
     -2.057057      7.248777      7.248777     14.497554
     -2.047047      5.175624      5.175624     10.351249
     -2.037037      3.437015      3.437015      6.874031
     -2.027027      2.116393      2.116393      4.232786
     -2.017017      1.207337      1.207337      2.414674
     -2.007007      0.641172      0.641172      1.282344
     -1.996997      0.327604      0.327604      0.655207
     -1.986987      0.188989      0.188989      0.377979
     -1.976977      0.181138      0.181138      0.362276
     -1.966967      0.302725      0.302725      0.605450
     -1.956957      0.597462      0.597462      1.194923
     -1.946947      1.149726      1.149726      2.299452
     -1.936937      2.069984      2.069984      4.139968
     -1.926927      3.465670      3.465670      6.931339
     -1.916917      5.398684      5.398684     10.797369
     -1.906907      7.840538      7.840538     15.681076
     -1.896897     10.644111     10.644111     21.288222
     -1.886887     13.549897     13.549897     27.099794
     -1.876877     16.232246     16.232246     32.464492
     -1.866867     18.373810     18.373810     36.747619
     -1.856857     19.744419     19.744419     39.488839
     -1.846847     20.259720     20.259720     40.519441
     -1.836837     20.002059     20.002059     40.004119
     -1.826827     19.195076     19.195076     38.390152
     -1.816817     18.133226     18.133226     36.266453
     -1.806807     17.082006     17.082006     34.164013
     -1.796797     16.182891     16.182891     32.365782
     -1.786787     15.406427     15.406427     30.812853
     -1.776777     14.582535     14.582535     29.165069
     -1.766767     13.499222     13.499222     26.998444
     -1.756757     12.021624     12.021624     24.043248
     -1.746747     10.171170     10.171170     20.342341
     -1.736737      8.130014      8.130014     16.260027
     -1.726727      6.180810      6.180810     12.361619
     -1.716717      4.624645      4.624645      9.249291
     -1.706707      3.719939      3.719939      7.439877
     -1.696697      3.657503      3.657503      7.315006
     -1.686687      4.555199      4.555199      9.110398
     -1.676677      6.442976      6.442976     12.885952
     -1.666667      9.223453      9.223453     18.446907
     -1.656657     12.623820     12.623820     25.247640
     -1.646647     16.179829     16.179829     32.359659
     -1.636637     19.292028     19.292028     38.584055
     -1.626627     21.362728     21.362728     42.725456
