# EIG2DOS: Utility for SIESTA to obtain the electronic density of states
#  E. Artacho, Apr 1999, A. Garcia, Apr 2012
#  Nick R. Papior, Feb 2017
# ------------------------------------------
# Eigenvalues calculated from a non-polarized calculation
# Eigenvalues read from siesta.EIG
# Kpoint weights read from siesta.KP
# Using smearing parameter:   0.0500
# Using 1000 points in the energy range
# Selected bands: 1 to: 2981
# Emin, Emax in file for selected band(s):    -27.1920131    218.3478200
# Nbands, Nspin, Nk   =   2981     1     1
# E_F                 =    -4.2577 eV --> (shifted to ZERO)
# Broadening          =     0.0500 eV
#
#        E            N(up)  (=)   N(down)         Ntot
     -5.000000     36.402340     36.402340     72.804680
     -4.989990     39.619185     39.619185     79.238370
     -4.979980     41.997534     41.997534     83.995068
     -4.969970     43.180111     43.180111     86.360222
     -4.959960     42.997795     42.997795     85.995590
     -4.949950     41.510831     41.510831     83.021663
     -4.939940     39.002652     39.002652     78.005304
     -4.929930     35.940951     35.940951     71.881901
     -4.919920     32.926493     32.926493     65.852987
     -4.909910     30.636235     30.636235     61.272470
     -4.899900     29.744512     29.744512     59.489024
     -4.889890     30.796396     30.796396     61.592792
     -4.879880     34.030362     34.030362     68.060723
     -4.869870     39.200332     39.200332     78.400664
     -4.859860     45.495369     45.495369     90.990739
     -4.849850     51.651198     51.651198    103.302395
     -4.839840     56.270440     56.270440    112.540879
     -4.829830     58.251704     58.251704    116.503408
     -4.819820     57.146257     57.146257    114.292514
     -4.809810     53.277841     53.277841    106.555681
     -4.799800     47.575756     47.575756     95.151511
     -4.789790     41.214243     41.214243     82.428485
     -4.779780     35.233429     35.233429     70.466858
     -4.769770     30.295274     30.295274     60.590548
     -4.759760     26.631450     26.631450     53.262899
     -4.749750     24.140353     24.140353     48.280705
     -4.739740     22.543102     22.543102     45.086203
     -4.729730     21.520006     21.520006     43.040011
     -4.719720     20.789757     20.789757     41.579514
     -4.709710     20.132243     20.132243     40.264487
     -4.699700     19.379654     19.379654     38.759308
     -4.689690     18.409148     18.409148     36.818296
     -4.679680     17.163504     17.163504     34.327008
     -4.669670     15.704029     15.704029     31.408058
     -4.659660     14.271450     14.271450     28.542900
     -4.649650     13.312506     13.312506     26.625012
     -4.639640     13.434564     13.434564     26.869127
     -4.629630     15.275596     15.275596     30.551192
     -4.619620     19.310160     19.310160     38.620321
     -4.609610     25.642678     25.642678     51.285357
     -4.599600     33.860268     33.860268     67.720536
     -4.589590     43.019014     43.019014     86.038028
     -4.579580     51.807518     51.807518    103.615036
     -4.569570     58.867893     58.867893    117.735786
     -4.559560     63.179417     63.179417    126.358835
     -4.549550     64.364501     64.364501    128.729002
     -4.539540     62.792856     62.792856    125.585712
     -4.529530     59.436524     59.436524    118.873049
     -4.519520     55.529577     55.529577    111.059155
     -4.509510     52.163438     52.163438    104.326875
     -4.499499     49.967845     49.967845     99.935691
     -4.489489     48.983703     48.983703     97.967405
     -4.479479     48.750445     48.750445     97.500889
     -4.469469     48.546302     48.546302     97.092605
     -4.459459     47.671555     47.671555     95.343111
     -4.449449     45.669584     45.669584     91.339169
     -4.439439     42.427927     42.427927     84.855854
     -4.429429     38.161785     38.161785     76.323569
     -4.419419     33.324027     33.324027     66.648054
     -4.409409     28.492709     28.492709     56.985418
     -4.399399     24.265943     24.265943     48.531885
     -4.389389     21.167416     21.167416     42.334833
     -4.379379     19.556468     19.556468     39.112936
     -4.369369     19.550018     19.550018     39.100037
     -4.359359     20.984433     20.984433     41.968865
     -4.349349     23.449487     23.449487     46.898974
     -4.339339     26.402467     26.402467     52.804934
     -4.329329     29.329827     29.329827     58.659655
     -4.319319     31.894318     31.894318     63.788636
     -4.309309     34.008464     34.008464     68.016928
     -4.299299     35.809282     35.809282     71.618564
     -4.289289     37.551474     37.551474     75.102948
     -4.279279     39.462969     39.462969     78.925939
     -4.269269     41.610971     41.610971     83.221942
     -4.259259     43.819609     43.819609     87.639218
     -4.249249     45.672377     45.672377     91.344754
     -4.239239     46.618375     46.618375     93.236749
     -4.229229     46.167452     46.167452     92.334905
     -4.219219     44.108601     44.108601     88.217202
     -4.209209     40.649687     40.649687     81.299373
     -4.199199     36.393457     36.393457     72.786914
     -4.189189     32.141405     32.141405     64.282810
     -4.179179     28.611800     28.611800     57.223601
     -4.169169     26.208385     26.208385     52.416771
     -4.159159     24.947495     24.947495     49.894990
     -4.149149     24.563603     24.563603     49.127206
     -4.139139     24.721817     24.721817     49.443633
     -4.129129     25.219513     25.219513     50.439026
     -4.119119     26.073786     26.073786     52.147572
     -4.109109     27.451983     27.451983     54.903966
     -4.099099     29.481757     29.481757     58.963515
     -4.089089     32.043741     32.043741     64.087482
     -4.079079     34.672531     34.672531     69.345061
     -4.069069     36.648405     36.648405     73.296810
     -4.059059     37.262456     37.262456     74.524912
     -4.049049     36.132474     36.132474     72.264947
     -4.039039     33.404144     33.404144     66.808289
     -4.029029     29.727835     29.727835     59.455670
     -4.019019     26.025221     26.025221     52.050442
     -4.009009     23.172575     23.172575     46.345150
     -3.998999     21.757432     21.757432     43.514864
     -3.988989     22.000912     22.000912     44.001823
     -3.978979     23.831548     23.831548     47.663095
     -3.968969     27.021266     27.021266     54.042532
     -3.958959     31.291729     31.291729     62.583458
     -3.948949     36.355176     36.355176     72.710352
     -3.938939     41.915813     41.915813     83.831626
     -3.928929     47.678293     47.678293     95.356587
     -3.918919     53.381155     53.381155    106.762310
     -3.908909     58.828517     58.828517    117.657033
     -3.898899     63.876373     63.876373    127.752746
     -3.888889     68.357864     68.357864    136.715727
     -3.878879     71.983861     71.983861    143.967722
     -3.868869     74.290564     74.290564    148.581128
     -3.858859     74.695553     74.695553    149.391107
     -3.848849     72.670113     72.670113    145.340227
     -3.838839     67.968393     67.968393    135.936786
     -3.828829     60.811873     60.811873    121.623745
     -3.818819     51.935806     51.935806    103.871612
     -3.808809     42.460593     42.460593     84.921186
     -3.798799     33.626581     33.626581     67.253162
     -3.788789     26.486869     26.486869     52.973738
     -3.778779     21.663426     21.663426     43.326853
     -3.768769     19.238420     19.238420     38.476841
     -3.758759     18.798220     18.798220     37.596439
     -3.748749     19.599573     19.599573     39.199146
     -3.738739     20.801046     20.801046     41.602092
     -3.728729     21.697601     21.697601     43.395203
     -3.718719     21.903856     21.903856     43.807712
     -3.708709     21.445050     21.445050     42.890099
     -3.698699     20.732415     20.732415     41.464830
     -3.688689     20.423151     20.423151     40.846301
     -3.678679     21.195156     21.195156     42.390312
     -3.668669     23.497915     23.497915     46.995829
     -3.658659     27.360882     27.360882     54.721764
     -3.648649     32.333855     32.333855     64.667711
     -3.638639     37.592039     37.592039     75.184077
     -3.628629     42.172955     42.172955     84.345910
     -3.618619     45.254192     45.254192     90.508384
     -3.608609     46.364758     46.364758     92.729515
     -3.598599     45.460729     45.460729     90.921458
     -3.588589     42.864182     42.864182     85.728363
     -3.578579     39.119434     39.119434     78.238869
     -3.568569     34.832934     34.832934     69.665869
     -3.558559     30.539529     30.539529     61.079057
     -3.548549     26.609868     26.609868     53.219736
     -3.538539     23.204349     23.204349     46.408699
     -3.528529     20.282939     20.282939     40.565878
     -3.518519     17.675576     17.675576     35.351153
     -3.508509     15.194921     15.194921     30.389842
     -3.498498     12.747136     12.747136     25.494272
     -3.488488     10.391811     10.391811     20.783621
     -3.478478      8.326861      8.326861     16.653722
     -3.468468      6.811403      6.811403     13.622807
     -3.458458      6.064168      6.064168     12.128336
     -3.448448      6.176217      6.176217     12.352435
     -3.438438      7.063463      7.063463     14.126927
     -3.428428      8.471340      8.471340     16.942681
     -3.418418     10.035065     10.035065     20.070129
     -3.408408     11.387270     11.387270     22.774541
     -3.398398     12.285591     12.285591     24.571183
     -3.388388     12.714362     12.714362     25.428723
     -3.378378     12.913983     12.913983     25.827966
     -3.368368     13.317134     13.317134     26.634269
     -3.358358     14.411483     14.411483     28.822965
     -3.348348     16.579028     16.579028     33.158056
     -3.338338     19.964597     19.964597     39.929194
     -3.328328     24.404289     24.404289     48.808578
     -3.318318     29.420601     29.420601     58.841202
     -3.308308     34.282704     34.282704     68.565409
     -3.298298     38.134380     38.134380     76.268760
     -3.288288     40.186578     40.186578     80.373156
     -3.278278     39.941388     39.941388     79.882775
     -3.268268     37.373583     37.373583     74.747167
     -3.258258     32.982257     32.982257     65.964515
     -3.248248     27.665090     27.665090     55.330179
     -3.238238     22.447954     22.447954     44.895907
     -3.228228     18.174756     18.174756     36.349511
     -3.218218     15.281666     15.281666     30.563331
     -3.208208     13.737731     13.737731     27.475462
     -3.198198     13.158821     13.158821     26.317642
     -3.188188     13.033701     13.033701     26.067402
     -3.178178     12.966090     12.966090     25.932180
     -3.168168     12.841213     12.841213     25.682426
     -3.158158     12.861726     12.861726     25.723452
     -3.148148     13.450105     13.450105     26.900210
     -3.138138     15.062838     15.062838     30.125677
     -3.128128     17.988608     17.988608     35.977217
     -3.118118     22.200953     22.200953     44.401906
     -3.108108     27.311273     27.311273     54.622546
     -3.098098     32.633764     32.633764     65.267528
     -3.088088     37.341830     37.341830     74.683659
     -3.078078     40.671561     40.671561     81.343123
     -3.068068     42.113672     42.113672     84.227344
     -3.058058     41.533864     41.533864     83.067727
     -3.048048     39.179093     39.179093     78.358187
     -3.038038     35.566127     35.566127     71.132255
     -3.028028     31.298373     31.298373     62.596746
     -3.018018     26.891618     26.891618     53.783235
     -3.008008     22.683977     22.683977     45.367953
     -2.997998     18.857842     18.857842     37.715684
     -2.987988     15.539655     15.539655     31.079311
     -2.977978     12.905890     12.905890     25.811779
     -2.967968     11.230727     11.230727     22.461454
     -2.957958     10.850376     10.850376     21.700753
     -2.947948     12.061159     12.061159     24.122318
     -2.937938     14.992318     14.992318     29.984635
     -2.927928     19.499031     19.499031     38.998063
     -2.917918     25.115824     25.115824     50.231648
     -2.907908     31.099415     31.099415     62.198829
     -2.897898     36.568361     36.568361     73.136723
     -2.887888     40.712143     40.712143     81.424286
     -2.877878     43.005372     43.005372     86.010744
     -2.867868     43.345449     43.345449     86.690899
     -2.857858     42.051731     42.051731     84.103463
     -2.847848     39.719358     39.719358     79.438716
     -2.837838     36.986623     36.986623     73.973247
     -2.827828     34.316480     34.316480     68.632959
     -2.817818     31.885779     31.885779     63.771558
     -2.807808     29.621344     29.621344     59.242687
     -2.797798     27.347766     27.347766     54.695533
     -2.787788     24.957922     24.957922     49.915844
     -2.777778     22.512724     22.512724     45.025448
     -2.767768     20.223473     20.223473     40.446945
     -2.757758     18.340795     18.340795     36.681590
     -2.747748     17.027467     17.027467     34.054935
     -2.737738     16.296908     16.296908     32.593817
     -2.727728     16.052237     16.052237     32.104475
     -2.717718     16.191913     16.191913     32.383826
     -2.707708     16.701919     16.701919     33.403838
     -2.697698     17.663214     17.663214     35.326428
     -2.687688     19.163188     19.163188     38.326377
     -2.677678     21.171556     21.171556     42.343111
     -2.667668     23.473792     23.473792     46.947583
     -2.657658     25.722332     25.722332     51.444664
     -2.647648     27.586434     27.586434     55.172868
     -2.637638     28.910319     28.910319     57.820637
     -2.627628     29.778268     29.778268     59.556536
     -2.617618     30.445060     30.445060     60.890121
     -2.607608     31.178391     31.178391     62.356782
     -2.597598     32.112378     32.112378     64.224755
     -2.587588     33.191596     33.191596     66.383191
     -2.577578     34.214127     34.214127     68.428255
     -2.567568     34.919398     34.919398     69.838796
     -2.557558     35.059192     35.059192     70.118385
     -2.547548     34.433556     34.433556     68.867112
     -2.537538     32.919096     32.919096     65.838191
     -2.527528     30.520631     30.520631     61.041261
     -2.517518     27.437550     27.437550     54.875100
     -2.507508     24.094588     24.094588     48.189176
     -2.497497     21.085424     21.085424     42.170849
     -2.487487     19.022461     19.022461     38.044922
     -2.477477     18.345079     18.345079     36.690158
     -2.467467     19.170838     19.170838     38.341676
     -2.457457     21.260108     21.260108     42.520216
     -2.447447     24.114382     24.114382     48.228764
     -2.437437     27.168567     27.168567     54.337135
     -2.427427     29.995284     29.995284     59.990567
     -2.417417     32.432399     32.432399     64.864797
     -2.407407     34.577139     34.577139     69.154278
     -2.397397     36.648689     36.648689     73.297378
     -2.387387     38.782238     38.782238     77.564475
     -2.377377     40.854374     40.854374     81.708748
     -2.367367     42.433832     42.433832     84.867664
     -2.357357     42.899784     42.899784     85.799568
     -2.347347     41.690102     41.690102     83.380204
     -2.337337     38.571486     38.571486     77.142972
     -2.327327     33.803249     33.803249     67.606497
     -2.317317     28.114634     28.114634     56.229267
     -2.307307     22.507351     22.507351     45.014701
     -2.297297     17.975687     17.975687     35.951374
     -2.287287     15.259963     15.259963     30.519926
     -2.277277     14.711003     14.711003     29.422007
     -2.267267     16.279221     16.279221     32.558443
     -2.257257     19.593774     19.593774     39.187549
     -2.247247     24.082814     24.082814     48.165628
     -2.237237     29.095122     29.095122     58.190244
     -2.227227     33.998506     33.998506     67.997012
     -2.217217     38.243037     38.243037     76.486074
     -2.207207     41.389950     41.389950     82.779899
     -2.197197     43.121265     43.121265     86.242529
     -2.187187     43.253484     43.253484     86.506967
     -2.177177     41.770157     41.770157     83.540313
     -2.167167     38.861841     38.861841     77.723682
     -2.157157     34.935107     34.935107     69.870213
     -2.147147     30.550384     30.550384     61.100767
     -2.137137     26.283260     26.283260     52.566521
     -2.127127     22.557007     22.557007     45.114013
     -2.117117     19.526461     19.526461     39.052923
     -2.107107     17.075518     17.075518     34.151036
     -2.097097     14.929226     14.929226     29.858452
     -2.087087     12.817582     12.817582     25.635164
     -2.077077     10.604624     10.604624     21.209248
     -2.067067      8.326143      8.326143     16.652286
     -2.057057      6.137380      6.137380     12.274760
     -2.047047      4.218138      4.218138      8.436276
     -2.037037      2.691905      2.691905      5.383810
     -2.027027      1.591823      1.591823      3.183646
     -2.017017      0.873067      0.873067      1.746133
     -2.007007      0.450084      0.450084      0.900167
     -1.996997      0.235279      0.235279      0.470559
     -1.986987      0.166106      0.166106      0.332212
     -1.976977      0.219075      0.219075      0.438150
     -1.966967      0.414775      0.414775      0.829551
     -1.956957      0.816730      0.816730      1.633460
     -1.946947      1.522444      1.522444      3.044889
     -1.936937      2.642101      2.642101      5.284202
     -1.926927      4.262949      4.262949      8.525899
     -1.916917      6.405881      6.405881     12.811762
     -1.906907      8.990556      8.990556     17.981112
     -1.896897     11.829039     11.829039     23.658079
     -1.886887     14.659623     14.659623     29.319245
     -1.876877     17.214735     17.214735     34.429470
     -1.866867     19.299661     19.299661     38.599321
     -1.856857     20.852201     20.852201     41.704402
     -1.846847     21.959353     21.959353     43.918706
     -1.836837     22.819910     22.819910     45.639820
     -1.826827     23.657066     23.657066     47.314132
     -1.816817     24.603621     24.603621     49.207242
     -1.806807     25.603148     25.603148     51.206297
     -1.796797     26.380874     26.380874     52.761748
     -1.786787     26.519421     26.519421     53.038843
     -1.776777     25.623765     25.623765     51.247531
     -1.766767     23.503338     23.503338     47.006676
     -1.756757     20.278750     20.278750     40.557500
     -1.746747     16.357256     16.357256     32.714512
     -1.736737     12.293615     12.293615     24.587229
     -1.726727      8.612491      8.612491     17.224982
     -1.716717      5.677772      5.677772     11.355543
     -1.706707      3.654115      3.654115      7.308231
     -1.696697      2.549630      2.549630      5.099260
     -1.686687      2.291297      2.291297      4.582594
     -1.676677      2.781882      2.781882      5.563763
     -1.666667      3.911116      3.911116      7.822231
     -1.656657      5.527212      5.527212     11.054424
     -1.646647      7.400593      7.400593     14.801185
     -1.636637      9.219017      9.219017     18.438034
     -1.626627     10.638254     10.638254     21.276509
