# EIG2DOS: Utility for SIESTA to obtain the electronic density of states
#  E. Artacho, Apr 1999, A. Garcia, Apr 2012
#  Nick R. Papior, Feb 2017
# ------------------------------------------
# Eigenvalues calculated from a non-polarized calculation
# Eigenvalues read from siesta.EIG
# Kpoint weights read from siesta.KP
# Using smearing parameter:   0.0500
# Using 1000 points in the energy range
# Selected bands: 1 to: 2981
# Emin, Emax in file for selected band(s):    -27.0589374    218.3424080
# Nbands, Nspin, Nk   =   2981     1     1
# E_F                 =    -4.2679 eV --> (shifted to ZERO)
# Broadening          =     0.0500 eV
#
#        E            N(up)  (=)   N(down)         Ntot
     -5.000000     37.649536     37.649536     75.299073
     -4.989990     40.070300     40.070300     80.140600
     -4.979980     42.192408     42.192408     84.384816
     -4.969970     43.540964     43.540964     87.081928
     -4.959960     43.748339     43.748339     87.496677
     -4.949950     42.672980     42.672980     85.345960
     -4.939940     40.446262     40.446262     80.892524
     -4.929930     37.451980     37.451980     74.903959
     -4.919920     34.266158     34.266158     68.532316
     -4.909910     31.581551     31.581551     63.163102
     -4.899900     30.117797     30.117797     60.235594
     -4.889890     30.497236     30.497236     60.994472
     -4.879880     33.074082     33.074082     66.148164
     -4.869870     37.748633     37.748633     75.497266
     -4.859860     43.852253     43.852253     87.704506
     -4.849850     50.204225     50.204225    100.408449
     -4.839840     55.384492     55.384492    110.768985
     -4.829830     58.154039     58.154039    116.308079
     -4.819820     57.854889     57.854889    115.709778
     -4.809810     54.607828     54.607828    109.215656
     -4.799800     49.218949     49.218949     98.437898
     -4.789790     42.852391     42.852391     85.704781
     -4.779780     36.634199     36.634199     73.268399
     -4.769770     31.358398     31.358398     62.716795
     -4.759760     27.381751     27.381751     54.763501
     -4.749750     24.685865     24.685865     49.371731
     -4.739740     23.021349     23.021349     46.042698
     -4.729730     22.049344     22.049344     44.098687
     -4.719720     21.435387     21.435387     42.870773
     -4.709710     20.892185     20.892185     41.784371
     -4.699700     20.192102     20.192102     40.384205
     -4.689690     19.176203     19.176203     38.352406
     -4.679680     17.779280     17.779280     35.558561
     -4.669670     16.072812     16.072812     32.145623
     -4.659660     14.307051     14.307051     28.614103
     -4.649650     12.920925     12.920925     25.841850
     -4.639640     12.492341     12.492341     24.984683
     -4.629630     13.620001     13.620001     27.240001
     -4.619620     16.752139     16.752139     33.504278
     -4.609610     22.001662     22.001662     44.003324
     -4.599600     29.007751     29.007751     58.015503
     -4.589590     36.913008     36.913008     73.826016
     -4.579580     44.506578     44.506578     89.013156
     -4.569570     50.527576     50.527576    101.055151
     -4.559560     54.045000     54.045000    108.090000
     -4.549550     54.772361     54.772361    109.544721
     -4.539540     53.179981     53.179981    106.359963
     -4.529530     50.344419     50.344419    100.688838
     -4.519520     47.586366     47.586366     95.172733
     -4.509510     46.036693     46.036693     92.073386
     -4.499499     46.291252     46.291252     92.582504
     -4.489489     48.265613     48.265613     96.531226
     -4.479479     51.274157     51.274157    102.548313
     -4.469469     54.278414     54.278414    108.556828
     -4.459459     56.206797     56.206797    112.413593
     -4.449449     56.246354     56.246354    112.492709
     -4.439439     54.034172     54.034172    108.068345
     -4.429429     49.715364     49.715364     99.430727
     -4.419419     43.874338     43.874338     87.748675
     -4.409409     37.376605     37.376605     74.753209
     -4.399399     31.171885     31.171885     62.343769
     -4.389389     26.104165     26.104165     52.208329
     -4.379379     22.759546     22.759546     45.519091
     -4.369369     21.371282     21.371282     42.742564
     -4.359359     21.797916     21.797916     43.595833
     -4.349349     23.585957     23.585957     47.171913
     -4.339339     26.111283     26.111283     52.222565
     -4.329329     28.764278     28.764278     57.528557
     -4.319319     31.119460     31.119460     62.238920
     -4.309309     33.030584     33.030584     66.061168
     -4.299299     34.620735     34.620735     69.241469
     -4.289289     36.177601     36.177601     72.355203
     -4.279279     37.994906     37.994906     75.989813
     -4.269269     40.211992     40.211992     80.423985
     -4.259259     42.701258     42.701258     85.402516
     -4.249249     45.046006     45.046006     90.092013
     -4.239239     46.635387     46.635387     93.270773
     -4.229229     46.866671     46.866671     93.733341
     -4.219219     45.390347     45.390347     90.780695
     -4.209209     42.290418     42.290418     84.580837
     -4.199199     38.101050     38.101050     76.202100
     -4.189189     33.633884     33.633884     67.267768
     -4.179179     29.690818     29.690818     59.381637
     -4.169169     26.800354     26.800354     53.600709
     -4.159159     25.099352     25.099352     50.198703
     -4.149149     24.398799     24.398799     48.797597
     -4.139139     24.376643     24.376643     48.753285
     -4.129129     24.786083     24.786083     49.572166
     -4.119119     25.573461     25.573461     51.146921
     -4.109109     26.851899     26.851899     53.703798
     -4.099099     28.748271     28.748271     57.496542
     -4.089089     31.205677     31.205677     62.411354
     -4.079079     33.856060     33.856060     67.712120
     -4.069069     36.055418     36.055418     72.110837
     -4.059059     37.094926     37.094926     74.189853
     -4.049049     36.499513     36.499513     72.999027
     -4.039039     34.262766     34.262766     68.525533
     -4.029029     30.890884     30.890884     61.781768
     -4.019019     27.231106     27.231106     54.462212
     -4.009009     24.177451     24.177451     48.354902
     -3.998999     22.403106     22.403106     44.806212
     -3.988989     22.232871     22.232871     44.465741
     -3.978979     23.673387     23.673387     47.346775
     -3.968969     26.532432     26.532432     53.064864
     -3.958959     30.534418     30.534418     61.068835
     -3.948949     35.380002     35.380002     70.760005
     -3.938939     40.760121     40.760121     81.520243
     -3.928929     46.367443     46.367443     92.734886
     -3.918919     51.931144     51.931144    103.862288
     -3.908909     57.257113     57.257113    114.514226
     -3.898899     62.228651     62.228651    124.457302
     -3.888889     66.739374     66.739374    133.478748
     -3.878879     70.580462     70.580462    141.160925
     -3.868869     73.351555     73.351555    146.703111
     -3.858859     74.472225     74.472225    148.944449
     -3.848849     73.327818     73.327818    146.655637
     -3.838839     69.510249     69.510249    139.020498
     -3.828829     63.051888     63.051888    126.103776
     -3.818819     54.537318     54.537318    109.074636
     -3.808809     45.025371     45.025371     90.050741
     -3.798799     35.798789     35.798789     71.597579
     -3.788789     28.034671     28.034671     56.069342
     -3.778779     22.516183     22.516183     45.032366
     -3.768769     19.477364     19.477364     38.954729
     -3.758759     18.612476     18.612476     37.224951
     -3.748749     19.224210     19.224210     38.448420
     -3.738739     20.452759     20.452759     40.905519
     -3.728729     21.520954     21.520954     43.041907
     -3.718719     21.938578     21.938578     43.877156
     -3.708709     21.621836     21.621836     43.243672
     -3.698699     20.899544     20.899544     41.799088
     -3.688689     20.398800     20.398800     40.797601
     -3.678679     20.831784     20.831784     41.663568
     -3.668669     22.738558     22.738558     45.477117
     -3.658659     26.266830     26.266830     52.533660
     -3.648649     31.071702     31.071702     62.143404
     -3.638639     36.384197     36.384197     72.768395
     -3.628629     41.231921     41.231921     82.463841
     -3.618619     44.727557     44.727557     89.455114
     -3.608609     46.310286     46.310286     92.620572
     -3.598599     45.853428     45.853428     91.706857
     -3.588589     43.622164     43.622164     87.244328
     -3.578579     40.131880     40.131880     80.263759
     -3.568569     35.981317     35.981317     71.962634
     -3.558559     31.713219     31.713219     63.426437
     -3.548549     27.720235     27.720235     55.440470
     -3.538539     24.196856     24.196856     48.393712
     -3.528529     21.141299     21.141299     42.282599
     -3.518519     18.412906     18.412906     36.825812
     -3.508509     15.833954     15.833954     31.667909
     -3.498498     13.298865     13.298865     26.597731
     -3.488488     10.843122     10.843122     21.686244
     -3.478478      8.642450      8.642450     17.284901
     -3.468468      6.948068      6.948068     13.896136
     -3.458458      5.991169      5.991169     11.982339
     -3.448448      5.894667      5.894667     11.789334
     -3.438438      6.618422      6.618422     13.236845
     -3.428428      7.951029      7.951029     15.902059
     -3.418418      9.553565      9.553565     19.107130
     -3.408408     11.052306     11.052306     22.104611
     -3.398398     12.160527     12.160527     24.321053
     -3.388388     12.788794     12.788794     25.577588
     -3.378378     13.095589     13.095589     26.191179
     -3.368368     13.448946     13.448946     26.897893
     -3.358358     14.309097     14.309097     28.618194
     -3.348348     16.077581     16.077581     32.155162
     -3.338338     18.966489     18.966489     37.932977
     -3.328328     22.920436     22.920436     45.840873
     -3.318318     27.595178     27.595178     55.190356
     -3.308308     32.385731     32.385731     64.771462
     -3.298298     36.507193     36.507193     73.014385
     -3.288288     39.139915     39.139915     78.279830
     -3.278278     39.631015     39.631015     79.262031
     -3.268268     37.698503     37.698503     75.397007
     -3.258258     33.549792     33.549792     67.099585
     -3.248248     27.843549     27.843549     55.687098
     -3.238238     21.495202     21.495202     42.990404
     -3.228228     15.407404     15.407404     30.814807
     -3.218218     10.241431     10.241431     20.482862
     -3.208208      6.313075      6.313075     12.626151
     -3.198198      3.625234      3.625234      7.250467
     -3.188188      1.988508      1.988508      3.977015
     -3.178178      1.161716      1.161716      2.323432
     -3.168168      0.962696      0.962696      1.925393
     -3.158158      1.330925      1.330925      2.661850
     -3.148148      2.344266      2.344266      4.688531
     -3.138138      4.195875      4.195875      8.391749
     -3.128128      7.132261      7.132261     14.264522
     -3.118118     11.353139     11.353139     22.706277
     -3.108108     16.886307     16.886307     33.772614
     -3.098098     23.473382     23.473382     46.946763
     -3.088088     30.520389     30.520389     61.040778
     -3.078078     37.162217     37.162217     74.324433
     -3.068068     42.451559     42.451559     84.903119
     -3.058058     45.622176     45.622176     91.244351
     -3.048048     46.325411     46.325411     92.650822
     -3.038038     44.734590     44.734590     89.469180
     -3.028028     41.466734     41.466734     82.933467
     -3.018018     37.358478     37.358478     74.716957
     -3.008008     33.201120     33.201120     66.402240
     -2.997998     29.548370     29.548370     59.096740
     -2.987988     26.660466     26.660466     53.320932
     -2.977978     24.576458     24.576458     49.152915
     -2.967968     23.253459     23.253459     46.506917
     -2.957958     22.695352     22.695352     45.390704
     -2.947948     23.008643     23.008643     46.017287
     -2.937938     24.358280     24.358280     48.716560
     -2.927928     26.841896     26.841896     53.683792
     -2.917918     30.344467     30.344467     60.688934
     -2.907908     34.456006     34.456006     68.912011
     -2.897898     38.514464     38.514464     77.028928
     -2.887888     41.776944     41.776944     83.553888
     -2.877878     43.653454     43.653454     87.306907
     -2.867868     43.898426     43.898426     87.796852
     -2.857858     42.670374     42.670374     85.340749
     -2.847848     40.432707     40.432707     80.865414
     -2.837838     37.745424     37.745424     75.490849
     -2.827828     35.047909     35.047909     70.095818
     -2.817818     32.531956     32.531956     65.063912
     -2.807808     30.153688     30.153688     60.307375
     -2.797798     27.760451     27.760451     55.520902
     -2.787788     25.252312     25.252312     50.504623
     -2.777778     22.686426     22.686426     45.372851
     -2.767768     20.271217     20.271217     40.542434
     -2.757758     18.263630     18.263630     36.527260
     -2.747748     16.839019     16.839019     33.678038
     -2.737738     16.016760     16.016760     32.033519
     -2.727728     15.686941     15.686941     31.373881
     -2.717718     15.716844     15.716844     31.433688
     -2.707708     16.062080     16.062080     32.124160
     -2.697698     16.802147     16.802147     33.604294
     -2.687688     18.069828     18.069828     36.139657
     -2.677678     19.917613     19.917613     39.835226
     -2.667668     22.212859     22.212859     44.425717
     -2.657658     24.641140     24.641140     49.282280
     -2.647648     26.828549     26.828549     53.657099
     -2.637638     28.513155     28.513155     57.026309
     -2.627628     29.659635     29.659635     59.319271
     -2.617618     30.446715     30.446715     60.893431
     -2.607608     31.140503     31.140503     62.281006
     -2.597598     31.938020     31.938020     63.876041
     -2.587588     32.873260     32.873260     65.746520
     -2.577578     33.822103     33.822103     67.644206
     -2.567568     34.571709     34.571709     69.143418
     -2.557558     34.891477     34.891477     69.782954
     -2.547548     34.572059     34.572059     69.144119
     -2.537538     33.449529     33.449529     66.899058
     -2.527528     31.451414     31.451414     62.902828
     -2.517518     28.671349     28.671349     57.342697
     -2.507508     25.430056     25.430056     50.860112
     -2.497497     22.261087     22.261087     44.522173
     -2.487487     19.792181     19.792181     39.584362
     -2.477477     18.555445     18.555445     37.110890
     -2.467467     18.807720     18.807720     37.615441
     -2.457457     20.445685     20.445685     40.891369
     -2.447447     23.058200     23.058200     46.116399
     -2.437437     26.095133     26.095133     52.190265
     -2.427427     29.078059     29.078059     58.156117
     -2.417417     31.757969     31.757969     63.515937
     -2.407407     34.148089     34.148089     68.296177
     -2.397397     36.417463     36.417463     72.834925
     -2.387387     38.698004     38.698004     77.396009
     -2.377377     40.902836     40.902836     81.805671
     -2.367367     42.654057     42.654057     85.308114
     -2.357357     43.370466     43.370466     86.740931
     -2.347347     42.489411     42.489411     84.978823
     -2.337337     39.727550     39.727550     79.455101
     -2.327327     35.259629     35.259629     70.519257
     -2.317317     29.729943     29.729943     59.459886
     -2.307307     24.090764     24.090764     48.181528
     -2.297297     19.340788     19.340788     38.681576
     -2.287287     16.271054     16.271054     32.542109
     -2.277277     15.303437     15.303437     30.606875
     -2.267267     16.451908     16.451908     32.903815
     -2.257257     19.386259     19.386259     38.772518
     -2.247247     23.553528     23.553528     47.107057
     -2.237237     28.311808     28.311808     56.623615
     -2.227227     33.041710     33.041710     66.083421
     -2.217217     37.214827     37.214827     74.429654
     -2.207207     40.416348     40.416348     80.832696
     -2.197197     42.339590     42.339590     84.679180
     -2.187187     42.783757     42.783757     85.567514
     -2.177177     41.679748     41.679748     83.359495
     -2.167167     39.139649     39.139649     78.279299
     -2.157157     35.490873     35.490873     70.981746
     -2.147147     31.244587     31.244587     62.489174
     -2.137137     26.977438     26.977438     53.954875
     -2.127127     23.162060     23.162060     46.324120
     -2.117117     20.025984     20.025984     40.051969
     -2.107107     17.514077     17.514077     35.028154
     -2.097097     15.374494     15.374494     30.748988
     -2.087087     13.318387     13.318387     26.636774
     -2.077077     11.166434     11.166434     22.332867
     -2.067067      8.912841      8.912841     17.825682
     -2.057057      6.692711      6.692711     13.385422
     -2.047047      4.691639      4.691639      9.383278
     -2.037037      3.055954      3.055954      6.111907
     -2.027027      1.844816      1.844816      3.689633
     -2.017017      1.031925      1.031925      2.063849
     -2.007007      0.538826      0.538826      1.077652
     -1.996997      0.275146      0.275146      0.550292
     -1.986987      0.169357      0.169357      0.338714
     -1.976977      0.185987      0.185987      0.371974
     -1.966967      0.332754      0.332754      0.665507
     -1.956957      0.661506      0.661506      1.323013
     -1.946947      1.262704      1.262704      2.525408
     -1.936937      2.249049      2.249049      4.498099
     -1.926927      3.724231      3.724231      7.448463
     -1.916917      5.739217      5.739217     11.478434
     -1.906907      8.248641      8.248641     16.497281
     -1.896897     11.086845     11.086845     22.173690
     -1.886887     13.980245     13.980245     27.960491
     -1.876877     16.598997     16.598997     33.197994
     -1.866867     18.633805     18.633805     37.267611
     -1.856857     19.873288     19.873288     39.746575
     -1.846847     20.258004     20.258004     40.516008
     -1.836837     19.895098     19.895098     39.790197
     -1.826827     19.026461     19.026461     38.052921
     -1.816817     17.953658     17.953658     35.907316
     -1.806807     16.938498     16.938498     33.876995
     -1.796797     16.116157     16.116157     32.232315
     -1.786787     15.464054     15.464054     30.928109
     -1.776777     14.849657     14.849657     29.699314
     -1.766767     14.137818     14.137818     28.275636
     -1.756757     13.298545     13.298545     26.597089
     -1.746747     12.449608     12.449608     24.899217
     -1.736737     11.804413     11.804413     23.608827
     -1.726727     11.553208     11.553208     23.106415
     -1.716717     11.748062     11.748062     23.496123
     -1.706707     12.261675     12.261675     24.523350
     -1.696697     12.846864     12.846864     25.693727
     -1.686687     13.263466     13.263466     26.526932
     -1.676677     13.398398     13.398398     26.796796
     -1.666667     13.307769     13.307769     26.615539
     -1.656657     13.156531     13.156531     26.313062
     -1.646647     13.093517     13.093517     26.187035
     -1.636637     13.139674     13.139674     26.279348
     -1.626627     13.159524     13.159524     26.319047
