# EIG2DOS: Utility for SIESTA to obtain the electronic density of states
#  E. Artacho, Apr 1999, A. Garcia, Apr 2012
#  Nick R. Papior, Feb 2017
# ------------------------------------------
# Eigenvalues calculated from a non-polarized calculation
# Eigenvalues read from siesta.EIG
# Kpoint weights read from siesta.KP
# Using smearing parameter:   0.0500
# Using 1000 points in the energy range
# Selected bands: 1 to: 2981
# Emin, Emax in file for selected band(s):    -27.0311495    218.3021620
# Nbands, Nspin, Nk   =   2981     1     1
# E_F                 =    -4.3108 eV --> (shifted to ZERO)
# Broadening          =     0.0500 eV
#
#        E            N(up)  (=)   N(down)         Ntot
     -5.000000     43.806087     43.806087     87.612173
     -4.989990     48.250871     48.250871     96.501742
     -4.979980     51.260403     51.260403    102.520806
     -4.969970     52.448860     52.448860    104.897719
     -4.959960     51.721490     51.721490    103.442981
     -4.949950     49.291944     49.291944     98.583887
     -4.939940     45.620613     45.620613     91.241225
     -4.929930     41.315962     41.315962     82.631923
     -4.919920     37.048311     37.048311     74.096623
     -4.909910     33.499060     33.499060     66.998120
     -4.899900     31.326524     31.326524     62.653049
     -4.889890     31.101369     31.101369     62.202738
     -4.879880     33.174784     33.174784     66.349568
     -4.869870     37.495881     37.495881     74.991762
     -4.859860     43.463871     43.463871     86.927742
     -4.849850     49.933773     49.933773     99.867545
     -4.839840     55.449213     55.449213    110.898425
     -4.829830     58.659584     58.659584    117.319168
     -4.819820     58.758165     58.758165    117.516330
     -4.809810     55.738609     55.738609    111.477218
     -4.799800     50.348379     50.348379    100.696757
     -4.789790     43.773764     43.773764     87.547528
     -4.779780     37.221540     37.221540     74.443080
     -4.769770     31.586909     31.586909     63.173819
     -4.759760     27.315098     27.315098     54.630195
     -4.749750     24.445247     24.445247     48.890494
     -4.739740     22.749360     22.749360     45.498720
     -4.729730     21.875747     21.875747     43.751494
     -4.719720     21.449338     21.449338     42.898676
     -4.709710     21.126015     21.126015     42.252029
     -4.699700     20.620466     20.620466     41.240932
     -4.689690     19.728791     19.728791     39.457583
     -4.679680     18.358686     18.358686     36.717372
     -4.669670     16.567425     16.567425     33.134851
     -4.659660     14.594339     14.594339     29.188678
     -4.649650     12.865869     12.865869     25.731738
     -4.639640     11.953173     11.953173     23.906346
     -4.629630     12.473533     12.473533     24.947067
     -4.619620     14.942118     14.942118     29.884236
     -4.609610     19.597554     19.597554     39.195108
     -4.599600     26.245185     26.245185     52.490370
     -4.589590     34.181734     34.181734     68.363467
     -4.579580     42.266721     42.266721     84.533442
     -4.569570     49.168673     49.168673     98.337346
     -4.559560     53.738133     53.738133    107.476267
     -4.549550     55.379796     55.379796    110.759593
     -4.539540     54.265536     54.265536    108.531073
     -4.529530     51.280865     51.280865    102.561729
     -4.519520     47.711761     47.711761     95.423522
     -4.509510     44.796691     44.796691     89.593381
     -4.499499     43.325760     43.325760     86.651520
     -4.489489     43.437857     43.437857     86.875715
     -4.479479     44.670049     44.670049     89.340098
     -4.469469     46.205811     46.205811     92.411622
     -4.459459     47.201129     47.201129     94.402259
     -4.449449     47.062061     47.062061     94.124123
     -4.439439     45.592006     45.592006     91.184012
     -4.429429     42.990544     42.990544     85.981087
     -4.419419     39.738373     39.738373     79.476747
     -4.409409     36.428722     36.428722     72.857445
     -4.399399     33.604334     33.604334     67.208667
     -4.389389     31.640344     31.640344     63.280687
     -4.379379     30.689340     30.689340     61.378679
     -4.369369     30.685238     30.685238     61.370475
     -4.359359     31.391777     31.391777     62.783555
     -4.349349     32.478572     32.478572     64.957143
     -4.339339     33.608707     33.608707     67.217414
     -4.329329     34.522569     34.522569     69.045138
     -4.319319     35.101675     35.101675     70.203350
     -4.309309     35.396799     35.396799     70.793598
     -4.299299     35.610332     35.610332     71.220663
     -4.289289     36.033400     36.033400     72.066799
     -4.279279     36.949120     36.949120     73.898239
     -4.269269     38.521216     38.521216     77.042431
     -4.259259     40.694428     40.694428     81.388855
     -4.249249     43.142232     43.142232     86.284464
     -4.239239     45.301136     45.301136     90.602273
     -4.229229     46.512590     46.512590     93.025179
     -4.219219     46.245384     46.245384     92.490768
     -4.209209     44.313526     44.313526     88.627052
     -4.199199     40.980353     40.980353     81.960706
     -4.189189     36.881438     36.881438     73.762876
     -4.179179     32.792389     32.792389     65.584778
     -4.169169     29.354497     29.354497     58.708993
     -4.159159     26.892015     26.892015     53.784030
     -4.149149     25.397260     25.397260     50.794520
     -4.139139     24.665014     24.665014     49.330028
     -4.129129     24.485131     24.485131     48.970261
     -4.119119     24.785579     24.785579     49.571158
     -4.109109     25.653746     25.653746     51.307491
     -4.099099     27.227516     27.227516     54.455032
     -4.089089     29.513847     29.513847     59.027693
     -4.079079     32.237305     32.237305     64.474609
     -4.069069     34.820284     34.820284     69.640568
     -4.059059     36.538090     36.538090     73.076180
     -4.049049     36.795612     36.795612     73.591225
     -4.039039     35.392160     35.392160     70.784321
     -4.029029     32.633913     32.633913     65.267826
     -4.019019     29.232906     29.232906     58.465813
     -4.009009     26.049912     26.049912     52.099824
     -3.998999     23.818439     23.818439     47.636878
     -3.988989     22.978195     22.978195     45.956389
     -3.978979     23.662501     23.662501     47.325002
     -3.968969     25.789647     25.789647     51.579295
     -3.958959     29.167012     29.167012     58.334024
     -3.948949     33.546478     33.546478     67.092957
     -3.938939     38.633935     38.633935     77.267870
     -3.928929     44.098198     44.098198     88.196396
     -3.918919     49.614694     49.614694     99.229389
     -3.908909     54.932080     54.932080    109.864160
     -3.898899     59.910083     59.910083    119.820165
     -3.888889     64.480443     64.480443    128.960885
     -3.878879     68.531080     68.531080    137.062160
     -3.868869     71.774486     71.774486    143.548972
     -3.858859     73.692510     73.692510    147.385020
     -3.848849     73.625447     73.625447    147.250893
     -3.838839     71.000210     71.000210    142.000420
     -3.828829     65.608516     65.608516    131.217032
     -3.818819     57.801632     57.801632    115.603264
     -3.808809     48.494985     48.494985     96.989970
     -3.798799     38.962926     38.962926     77.925853
     -3.788789     30.501788     30.501788     61.003577
     -3.778779     24.092959     24.092959     48.185917
     -3.768769     20.183637     20.183637     40.367275
     -3.758759     18.640798     18.640798     37.281597
     -3.748749     18.865249     18.865249     37.730499
     -3.738739     20.009305     20.009305     40.018611
     -3.728729     21.229604     21.229604     42.459208
     -3.718719     21.913915     21.913915     43.827829
     -3.708709     21.833989     21.833989     43.667978
     -3.698699     21.190877     21.190877     42.381754
     -3.688689     20.537690     20.537690     41.075380
     -3.678679     20.591392     20.591392     41.182783
     -3.668669     21.978683     21.978683     43.957367
     -3.658659     24.991834     24.991834     49.983667
     -3.648649     29.442019     29.442019     58.884038
     -3.638639     34.674686     34.674686     69.349371
     -3.628629     39.752203     39.752203     79.504405
     -3.618619     43.736222     43.736222     87.472444
     -3.608609     45.955740     45.955740     91.911480
     -3.598599     46.158030     46.158030     92.316060
     -3.588589     44.503780     44.503780     89.007559
     -3.578579     41.443049     41.443049     82.886098
     -3.568569     37.547731     37.547731     75.095463
     -3.558559     33.364183     33.364183     66.728367
     -3.548549     29.312311     29.312311     58.624622
     -3.538539     25.631661     25.631661     51.263322
     -3.528529     22.373632     22.373632     44.747264
     -3.518519     19.444225     19.444225     38.888449
     -3.508509     16.692038     16.692038     33.384077
     -3.498498     14.012452     14.012452     28.024904
     -3.488488     11.423295     11.423295     22.846591
     -3.478478      9.078139      9.078139     18.156279
     -3.468468      7.215130      7.215130     14.430260
     -3.458458      6.068873      6.068873     12.137746
     -3.448448      5.782256      5.782256     11.564512
     -3.438438      6.345995      6.345995     12.691991
     -3.428428      7.580620      7.580620     15.161240
     -3.418418      9.167862      9.167862     18.335724
     -3.408408     10.731660     10.731660     21.463321
     -3.398398     11.954191     11.954191     23.908382
     -3.388388     12.691035     12.691035     25.382071
     -3.378378     13.037303     13.037303     26.074606
     -3.368368     13.309389     13.309389     26.618778
     -3.358358     13.944009     13.944009     27.888017
     -3.348348     15.355148     15.355148     30.710295
     -3.338338     17.803923     17.803923     35.607845
     -3.328328     21.317760     21.317760     42.635520
     -3.318318     25.662463     25.662463     51.324926
     -3.308308     30.353402     30.353402     60.706805
     -3.298298     34.702924     34.702924     69.405849
     -3.288288     37.921381     37.921381     75.842762
     -3.278278     39.285190     39.285190     78.570381
     -3.268268     38.344038     38.344038     76.688077
     -3.258258     35.088698     35.088698     70.177397
     -3.248248     29.989709     29.989709     59.979417
     -3.238238     23.868870     23.868870     47.737740
     -3.228228     17.651805     17.651805     35.303610
     -3.218218     12.111055     12.111055     24.222111
     -3.208208      7.704657      7.704657     15.409315
     -3.198198      4.554253      4.554253      9.108507
     -3.188188      2.535786      2.535786      5.071573
     -3.178178      1.417391      1.417391      2.834781
     -3.168168      0.983801      0.983801      1.967601
     -3.158158      1.115384      1.115384      2.230768
     -3.148148      1.816783      1.816783      3.633567
     -3.138138      3.201722      3.201722      6.403444
     -3.128128      5.440279      5.440279     10.880557
     -3.118118      8.674769      8.674769     17.349539
     -3.108108     12.919335     12.919335     25.838669
     -3.098098     17.974749     17.974749     35.949499
     -3.088088     23.401541     23.401541     46.803081
     -3.078078     28.585344     28.585344     57.170688
     -3.068068     32.892029     32.892029     65.784058
     -3.058058     35.859205     35.859205     71.718411
     -3.048048     37.335834     37.335834     74.671668
     -3.038038     37.493457     37.493457     74.986915
     -3.028028     36.696486     36.696486     73.392972
     -3.018018     35.302429     35.302429     70.604858
     -3.008008     33.510817     33.510817     67.021634
     -2.997998     31.353467     31.353467     62.706935
     -2.987988     28.829904     28.829904     57.659808
     -2.977978     26.097750     26.097750     52.195500
     -2.967968     23.590807     23.590807     47.181614
     -2.957958     21.978672     21.978672     43.957343
     -2.947948     21.969862     21.969862     43.939724
     -2.937938     24.040928     24.040928     48.081857
     -2.927928     28.207963     28.207963     56.415926
     -2.917918     33.938376     33.938376     67.876752
     -2.907908     40.246357     40.246357     80.492715
     -2.897898     45.947559     45.947559     91.895118
     -2.887888     49.988694     49.988694     99.977389
     -2.877878     51.736776     51.736776    103.473551
     -2.867868     51.125467     51.125467    102.250934
     -2.857858     48.610942     48.610942     97.221883
     -2.847848     44.964217     44.964217     89.928434
     -2.837838     40.988218     40.988218     81.976435
     -2.827828     37.270077     37.270077     74.540155
     -2.817818     34.055944     34.055944     68.111889
     -2.807808     31.279552     31.279552     62.559103
     -2.797798     28.711008     28.711008     57.422016
     -2.787788     26.144800     26.144800     52.289601
     -2.777778     23.535595     23.535595     47.071190
     -2.767768     21.022357     21.022357     42.044714
     -2.757758     18.841624     18.841624     37.683247
     -2.747748     17.189787     17.189787     34.379574
     -2.737738     16.119990     16.119990     32.239981
     -2.727728     15.535750     15.535750     31.071500
     -2.717718     15.282470     15.282470     30.564940
     -2.707708     15.275265     15.275265     30.550531
     -2.697698     15.576245     15.576245     31.152489
     -2.687688     16.364509     16.364509     32.729018
     -2.677678     17.810704     17.810704     35.621408
     -2.667668     19.932298     19.932298     39.864597
     -2.657658     22.523549     22.523549     45.047098
     -2.647648     25.211285     25.211285     50.422570
     -2.637638     27.609271     27.609271     55.218542
     -2.627628     29.480592     29.480592     58.961184
     -2.617618     30.812657     30.812657     61.625315
     -2.607608     31.767726     31.767726     63.535453
     -2.597598     32.552504     32.552504     65.105008
     -2.587588     33.295064     33.295064     66.590129
     -2.577578     33.995802     33.995802     67.991604
     -2.567568     34.554297     34.554297     69.108593
     -2.557558     34.822820     34.822820     69.645640
     -2.547548     34.640195     34.640195     69.280390
     -2.537538     33.845279     33.845279     67.690558
     -2.527528     32.306806     32.306806     64.613613
     -2.517518     29.995615     29.995615     59.991231
     -2.507508     27.075099     27.075099     54.150197
     -2.497497     23.944277     23.944277     47.888555
     -2.487487     21.176902     21.176902     42.353805
     -2.477477     19.357786     19.357786     38.715572
     -2.467467     18.883168     18.883168     37.766336
     -2.457457     19.820484     19.820484     39.640967
     -2.447447     21.897666     21.897666     43.795332
     -2.437437     24.629454     24.629454     49.258907
     -2.427427     27.521886     27.521886     55.043772
     -2.417417     30.258186     30.258186     60.516372
     -2.407407     32.777299     32.777299     65.554598
     -2.397397     35.207832     35.207832     70.415664
     -2.387387     37.691916     37.691916     75.383833
     -2.377377     40.190954     40.190954     80.381909
     -2.367367     42.378888     42.378888     84.757777
     -2.357357     43.689804     43.689804     87.379609
     -2.347347     43.512661     43.512661     87.025322
     -2.337337     41.452147     41.452147     82.904295
     -2.327327     37.538205     37.538205     75.076411
     -2.317317     32.287596     32.287596     64.575193
     -2.307307     26.589125     26.589125     53.178250
     -2.297297     21.463123     21.463123     42.926247
     -2.287287     17.793521     17.793521     35.587042
     -2.277277     16.126989     16.126989     32.253977
     -2.267267     16.590432     16.590432     33.180864
     -2.257257     18.926595     18.926595     37.853191
     -2.247247     22.612240     22.612240     45.224481
     -2.237237     27.009732     27.009732     54.019463
     -2.227227     31.504038     31.504038     63.008075
     -2.217217     35.588455     35.588455     71.176910
     -2.207207     38.884813     38.884813     77.769626
     -2.197197     41.115190     41.115190     82.230379
     -2.187187     42.068336     42.068336     84.136672
     -2.177177     41.605092     41.605092     83.210184
     -2.167167     39.714872     39.714872     79.429745
     -2.157157     36.586901     36.586901     73.173803
     -2.147147     32.630844     32.630844     65.261688
     -2.137137     28.399677     28.399677     56.799355
     -2.127127     24.427525     24.427525     48.855050
     -2.117117     21.056792     21.056792     42.113583
     -2.107107     18.346251     18.346251     36.692502
     -2.097097     16.108948     16.108948     32.217895
     -2.087087     14.053973     14.053973     28.107946
     -2.077077     11.950086     11.950086     23.900171
     -2.067067      9.726919      9.726919     19.453838
     -2.057057      7.476498      7.476498     14.952996
     -2.047047      5.377509      5.377509     10.755018
     -2.037037      3.598875      3.598875      7.197751
     -2.027027      2.233782      2.233782      4.467564
     -2.017017      1.284402      1.284402      2.568805
     -2.007007      0.686702      0.686702      1.373403
     -1.996997      0.350817      0.350817      0.701635
     -1.986987      0.196536      0.196536      0.393072
     -1.976977      0.175501      0.175501      0.351001
     -1.966967      0.281618      0.281618      0.563236
     -1.956957      0.553942      0.553942      1.107884
     -1.946947      1.073253      1.073253      2.146505
     -1.936937      1.949003      1.949003      3.898005
     -1.926927      3.291975      3.291975      6.583950
     -1.916917      5.172769      5.172769     10.345539
     -1.906907      7.575841      7.575841     15.151683
     -1.896897     10.367529     10.367529     20.735057
     -1.886887     13.296939     13.296939     26.593878
     -1.876877     16.037640     16.037640     32.075280
     -1.866867     18.260837     18.260837     36.521674
     -1.856857     19.717238     19.717238     39.434476
     -1.846847     20.301800     20.301800     40.603601
     -1.836837     20.081435     20.081435     40.162869
     -1.826827     19.274802     19.274802     38.549604
     -1.816817     18.183888     18.183888     36.367776
     -1.806807     17.092288     17.092288     34.184576
     -1.796797     16.164156     16.164156     32.328312
     -1.786787     15.388615     15.388615     30.777230
     -1.776777     14.601918     14.601918     29.203836
     -1.766767     13.582432     13.582432     27.164863
     -1.756757     12.172400     12.172400     24.344800
     -1.746747     10.364500     10.364500     20.729001
     -1.736737      8.313562      8.313562     16.627124
     -1.726727      6.279272      6.279272     12.558544
     -1.716717      4.542585      4.542585      9.085170
     -1.706707      3.343712      3.343712      6.687424
     -1.696697      2.863909      2.863909      5.727817
     -1.686687      3.237569      3.237569      6.475138
     -1.676677      4.559184      4.559184      9.118368
     -1.666667      6.854504      6.854504     13.709008
     -1.656657     10.014020     10.014020     20.028040
     -1.646647     13.723790     13.723790     27.447580
     -1.636637     17.450708     17.450708     34.901417
     -1.626627     20.527163     20.527163     41.054326
