# EIG2DOS: Utility for SIESTA to obtain the electronic density of states
#  E. Artacho, Apr 1999, A. Garcia, Apr 2012
#  Nick R. Papior, Feb 2017
# ------------------------------------------
# Eigenvalues calculated from a non-polarized calculation
# Eigenvalues read from siesta.EIG
# Kpoint weights read from siesta.KP
# Using smearing parameter:   0.0500
# Using 1000 points in the energy range
# Selected bands: 1 to: 2981
# Emin, Emax in file for selected band(s):    -27.0289373    218.3166640
# Nbands, Nspin, Nk   =   2981     1     1
# E_F                 =    -4.2922 eV --> (shifted to ZERO)
# Broadening          =     0.0500 eV
#
#        E            N(up)  (=)   N(down)         Ntot
     -5.000000     45.355209     45.355209     90.710418
     -4.989990     47.810337     47.810337     95.620675
     -4.979980     48.990744     48.990744     97.981488
     -4.969970     48.870379     48.870379     97.740759
     -4.959960     47.530626     47.530626     95.061251
     -4.949950     45.147438     45.147438     90.294875
     -4.939940     41.989458     41.989458     83.978915
     -4.929930     38.424574     38.424574     76.849149
     -4.919920     34.926433     34.926433     69.852867
     -4.909910     32.066800     32.066800     64.133600
     -4.899900     30.472029     30.472029     60.944058
     -4.889890     30.718907     30.718907     61.437814
     -4.879880     33.162486     33.162486     66.324971
     -4.869870     37.734171     37.734171     75.468342
     -4.859860     43.802188     43.802188     87.604377
     -4.849850     50.203861     50.203861    100.407722
     -4.839840     55.503968     55.503968    111.007937
     -4.829830     58.418219     58.418219    116.836438
     -4.819820     58.232413     58.232413    116.464826
     -4.809810     55.024695     55.024695    110.049389
     -4.799800     49.588517     49.588517     99.177034
     -4.789790     43.106248     43.106248     86.212497
     -4.779780     36.740937     36.740937     73.481873
     -4.769770     31.326444     31.326444     62.652889
     -4.759760     27.250640     27.250640     54.501281
     -4.749750     24.512731     24.512731     49.025463
     -4.739740     22.867064     22.867064     45.734129
     -4.729730     21.965836     21.965836     43.931672
     -4.719720     21.455212     21.455212     42.910425
     -4.709710     21.022536     21.022536     42.045072
     -4.699700     20.415162     20.415162     40.830324
     -4.689690     19.455097     19.455097     38.910193
     -4.679680     18.065711     18.065711     36.131422
     -4.669670     16.311852     16.311852     32.623704
     -4.659660     14.437458     14.437458     28.874916
     -4.649650     12.873965     12.873965     25.747930
     -4.639640     12.195412     12.195412     24.390824
     -4.629630     13.010924     13.010924     26.021849
     -4.619620     15.805071     15.805071     31.610142
     -4.609610     20.757298     20.757298     41.514597
     -4.599600     27.592569     27.592569     55.185138
     -4.589590     35.530261     35.530261     71.060523
     -4.579580     43.390200     43.390200     86.780400
     -4.569570     49.867653     49.867653     99.735307
     -4.559560     53.911144     53.911144    107.822288
     -4.549550     55.067008     55.067008    110.134017
     -4.539540     53.641527     53.641527    107.283055
     -4.529530     50.596264     50.596264    101.192527
     -4.519520     47.207909     47.207909     94.415818
     -4.509510     44.629465     44.629465     89.258930
     -4.499499     43.529074     43.529074     87.058147
     -4.489489     43.939026     43.939026     87.878053
     -4.479479     45.348219     45.348219     90.696439
     -4.469469     46.968866     46.968866     93.937732
     -4.459459     48.049142     48.049142     96.098283
     -4.449449     48.106966     48.106966     96.213933
     -4.439439     47.015062     47.015062     94.030123
     -4.429429     44.942516     44.942516     89.885033
     -4.419419     42.217962     42.217962     84.435924
     -4.409409     39.198402     39.198402     78.396805
     -4.399399     36.200343     36.200343     72.400686
     -4.389389     33.495420     33.495420     66.990840
     -4.379379     31.327141     31.327141     62.654281
     -4.369369     29.899392     29.899392     59.798784
     -4.359359     29.323443     29.323443     58.646887
     -4.349349     29.558196     29.558196     59.116392
     -4.339339     30.398439     30.398439     60.796877
     -4.329329     31.540470     31.540470     63.080939
     -4.319319     32.703064     32.703064     65.406128
     -4.309309     33.743449     33.743449     67.486898
     -4.299299     34.708843     34.708843     69.417687
     -4.289289     35.798576     35.798576     71.597151
     -4.279279     37.253041     37.253041     74.506082
     -4.269269     39.211737     39.211737     78.423475
     -4.259259     41.591010     41.591010     83.182019
     -4.249249     44.030921     44.030921     88.061841
     -4.239239     45.949806     45.949806     91.899613
     -4.229229     46.713748     46.713748     93.427497
     -4.219219     45.873877     45.873877     91.747755
     -4.209209     43.371845     43.371845     86.743690
     -4.199199     39.605282     39.605282     79.210563
     -4.189189     35.303758     35.303758     70.607516
     -4.179179     31.265658     31.265658     62.531316
     -4.169169     28.084070     28.084070     56.168139
     -4.159159     25.992776     25.992776     51.985553
     -4.149149     24.891509     24.891509     49.783017
     -4.139139     24.512241     24.512241     49.024482
     -4.129129     24.623208     24.623208     49.246415
     -4.119119     25.161728     25.161728     50.323456
     -4.109109     26.231660     26.231660     52.463321
     -4.099099     27.970123     27.970123     55.940245
     -4.089089     30.354703     30.354703     60.709406
     -4.079079     33.061591     33.061591     66.123181
     -4.069069     35.473326     35.473326     70.946651
     -4.059059     36.864720     36.864720     73.729440
     -4.049049     36.694678     36.694678     73.389356
     -4.039039     34.859203     34.859203     69.718407
     -4.029029     31.769803     31.769803     63.539607
     -4.019019     28.214434     28.214434     56.428868
     -4.009009     25.077916     25.077916     50.155833
     -3.998999     23.067436     23.067436     46.134872
     -3.988989     22.565179     22.565179     45.130357
     -3.978979     23.638679     23.638679     47.277359
     -3.968969     26.147953     26.147953     52.295906
     -3.958959     29.856143     29.856143     59.712287
     -3.948949     34.486754     34.486754     68.973508
     -3.938939     39.734846     39.734846     79.469692
     -3.928929     45.277402     45.277402     90.554804
     -3.918919     50.813913     50.813913    101.627826
     -3.908909     56.121800     56.121800    112.243601
     -3.898899     61.077039     61.077039    122.154079
     -3.888889     65.600401     65.600401    131.200803
     -3.878879     69.539964     69.539964    139.079929
     -3.868869     72.556206     72.556206    145.112413
     -3.858859     74.096798     74.096798    148.193597
     -3.848849     73.514454     73.514454    147.028907
     -3.838839     70.306016     70.306016    140.612032
     -3.828829     64.375021     64.375021    128.750041
     -3.818819     56.189536     56.189536    112.379072
     -3.808809     46.745381     46.745381     93.490762
     -3.798799     37.333802     37.333802     74.667604
     -3.788789     29.202148     29.202148     58.404297
     -3.778779     23.237060     23.237060     46.474121
     -3.768769     19.776605     19.776605     39.553210
     -3.758759     18.594264     18.594264     37.188528
     -3.748749     19.033510     19.033510     38.067021
     -3.738739     20.234001     20.234001     40.468003
     -3.728729     21.381978     21.381978     42.763957
     -3.718719     21.925963     21.925963     43.851926
     -3.708709     21.712284     21.712284     43.424568
     -3.698699     21.009958     21.009958     42.019917
     -3.688689     20.414058     20.414058     40.828116
     -3.678679     20.644206     20.644206     41.288412
     -3.668669     22.288037     22.288037     44.576074
     -3.658659     25.567974     25.567974     51.135949
     -3.648649     30.216879     30.216879     60.433759
     -3.638639     35.519676     35.519676     71.039352
     -3.628629     40.515663     40.515663     81.031326
     -3.618619     44.285490     44.285490     88.570980
     -3.608609     46.207734     46.207734     92.415469
     -3.598599     46.089576     46.089576     92.179152
     -3.588589     44.143703     44.143703     88.287405
     -3.578579     40.855088     40.855088     81.710175
     -3.568569     36.812888     36.812888     73.625777
     -3.558559     32.565944     32.565944     65.131888
     -3.548549     28.524164     28.524164     57.048327
     -3.538539     24.906739     24.906739     49.813478
     -3.528529     21.739018     21.739018     43.478036
     -3.518519     18.903104     18.903104     37.806208
     -3.508509     16.233682     16.233682     32.467364
     -3.498498     13.625459     13.625459     27.250917
     -3.488488     11.105625     11.105625     22.211250
     -3.478478      8.839648      8.839648     17.679296
     -3.468468      7.072574      7.072574     14.145148
     -3.458458      6.036558      6.036558     12.073116
     -3.448448      5.862310      5.862310     11.724620
     -3.438438      6.521616      6.521616     13.043231
     -3.428428      7.814930      7.814930     15.629860
     -3.418418      9.410224      9.410224     18.820449
     -3.408408     10.931328     10.931328     21.862656
     -3.398398     12.077809     12.077809     24.155617
     -3.388388     12.737428     12.737428     25.474856
     -3.378378     13.042846     13.042846     26.085691
     -3.368368     13.340995     13.340995     26.681989
     -3.358358     14.082208     14.082208     28.164416
     -3.348348     15.673125     15.673125     31.346250
     -3.338338     18.347681     18.347681     36.695362
     -3.328328     22.089616     22.089616     44.179233
     -3.318318     26.608877     26.608877     53.217754
     -3.308308     31.360775     31.360775     62.721549
     -3.298298     35.608595     35.608595     71.217190
     -3.288288     38.545559     38.545559     77.091118
     -3.278278     39.479974     39.479974     78.959949
     -3.268268     38.042712     38.042712     76.085424
     -3.258258     34.332359     34.332359     68.664718
     -3.248248     28.916162     28.916162     57.832324
     -3.238238     22.667358     22.667358     45.334717
     -3.228228     16.504462     16.504462     33.008924
     -3.218218     11.146653     11.146653     22.293307
     -3.208208      6.980468      6.980468     13.960937
     -3.198198      4.065846      4.065846      8.131691
     -3.188188      2.242851      2.242851      4.485701
     -3.178178      1.271371      1.271371      2.542742
     -3.168168      0.948065      0.948065      1.896129
     -3.158158      1.175281      1.175281      2.350562
     -3.148148      1.980935      1.980935      3.961870
     -3.138138      3.496550      3.496550      6.993099
     -3.128128      5.899028      5.899028     11.798056
     -3.118118      9.322610      9.322610     18.645220
     -3.108108     13.758389     13.758389     27.516779
     -3.098098     18.975813     18.975813     37.951626
     -3.088088     24.509472     24.509472     49.018945
     -3.078078     29.739831     29.739831     59.479662
     -3.068068     34.055160     34.055160     68.110320
     -3.058058     37.031939     37.031939     74.063877
     -3.048048     38.545839     38.545839     77.091678
     -3.038038     38.751964     38.751964     77.503928
     -3.028028     37.945872     37.945872     75.891744
     -3.018018     36.392791     36.392791     72.785582
     -3.008008     34.236158     34.236158     68.472316
     -2.997998     31.544665     31.544665     63.089330
     -2.987988     28.461273     28.461273     56.922545
     -2.977978     25.344988     25.344988     50.689977
     -2.967968     22.796814     22.796814     45.593628
     -2.957958     21.531189     21.531189     43.062378
     -2.947948     22.143073     22.143073     44.286146
     -2.937938     24.874236     24.874236     49.748472
     -2.927928     29.478729     29.478729     58.957458
     -2.917918     35.241441     35.241441     70.482881
     -2.907908     41.144315     41.144315     82.288630
     -2.897898     46.125540     46.125540     92.251080
     -2.887888     49.349781     49.349781     98.699562
     -2.877878     50.406494     50.406494    100.812988
     -2.867868     49.377577     49.377577     98.755153
     -2.857858     46.758078     46.758078     93.516156
     -2.847848     43.261745     43.261745     86.523489
     -2.837838     39.581503     39.581503     79.163006
     -2.827828     36.189946     36.189946     72.379891
     -2.817818     33.248989     33.248989     66.497979
     -2.807808     30.653877     30.653877     61.307754
     -2.797798     28.180054     28.180054     56.360109
     -2.787788     25.656892     25.656892     51.313784
     -2.777778     23.082735     23.082735     46.165469
     -2.767768     20.628979     20.628979     41.257957
     -2.757758     18.541768     18.541768     37.083536
     -2.747748     17.006164     17.006164     34.012327
     -2.737738     16.056945     16.056945     32.113891
     -2.727728     15.589552     15.589552     31.179104
     -2.717718     15.460634     15.460634     30.921269
     -2.707708     15.608994     15.608994     31.217987
     -2.697698     16.112250     16.112250     32.224501
     -2.687688     17.134802     17.134802     34.269603
     -2.677678     18.794801     18.794801     37.589602
     -2.667668     21.035595     21.035595     42.071190
     -2.657658     23.590541     23.590541     47.181082
     -2.647648     26.073745     26.073745     52.147491
     -2.637638     28.147852     28.147852     56.295704
     -2.627628     29.668123     29.668123     59.336246
     -2.617618     30.716811     30.716811     61.433622
     -2.607608     31.514277     31.514277     63.028554
     -2.597598     32.271867     32.271867     64.543735
     -2.587588     33.079554     33.079554     66.159108
     -2.577578     33.881864     33.881864     67.763727
     -2.567568     34.525808     34.525808     69.051616
     -2.557558     34.823316     34.823316     69.646631
     -2.547548     34.587320     34.587320     69.174640
     -2.537538     33.650273     33.650273     67.300546
     -2.527528     31.903119     31.903119     63.806237
     -2.517518     29.371449     29.371449     58.742898
     -2.507508     26.294246     26.294246     52.588493
     -2.497497     23.139544     23.139544     46.279089
     -2.487487     20.513098     20.513098     41.026195
     -2.477477     18.978185     18.978185     37.956369
     -2.467467     18.862860     18.862860     37.725720
     -2.457457     20.146587     20.146587     40.293173
     -2.447447     22.483055     22.483055     44.966111
     -2.437437     25.351329     25.351329     50.702658
     -2.427427     28.266434     28.266434     56.532868
     -2.417417     30.951660     30.951660     61.903319
     -2.407407     33.391753     33.391753     66.783507
     -2.397397     35.742474     35.742474     71.484948
     -2.387387     38.142485     38.142485     76.284969
     -2.377377     40.524450     40.524450     81.048900
     -2.367367     42.527576     42.527576     85.055151
     -2.357357     43.568914     43.568914     87.137828
     -2.347347     43.054989     43.054989     86.109979
     -2.337337     40.644330     40.644330     81.288661
     -2.327327     36.441552     36.441552     72.883104
     -2.317317     31.032523     31.032523     62.065046
     -2.307307     25.344257     25.344257     50.688514
     -2.297297     20.391940     20.391940     40.783880
     -2.287287     17.016459     17.016459     34.032919
     -2.277277     15.702552     15.702552     31.405105
     -2.267267     16.518434     16.518434     33.036867
     -2.257257     19.166505     19.166505     38.333010
     -2.247247     23.104688     23.104688     46.209376
     -2.237237     27.690635     27.690635     55.381269
     -2.227227     32.306782     32.306782     64.613564
     -2.217217     36.437053     36.437053     72.874106
     -2.207207     39.686744     39.686744     79.373488
     -2.197197     41.763915     41.763915     83.527831
     -2.187187     42.460837     42.460837     84.921674
     -2.177177     41.670714     41.670714     83.341428
     -2.167167     39.442897     39.442897     78.885795
     -2.157157     36.037293     36.037293     72.074586
     -2.147147     31.918720     31.918720     63.837439
     -2.137137     27.657076     27.657076     55.314152
     -2.127127     23.758785     23.758785     47.517570
     -2.117117     20.508269     20.508269     41.016539
     -2.107107     17.903775     17.903775     35.807550
     -2.097097     15.721481     15.721481     31.442961
     -2.087087     13.668584     13.668584     27.337169
     -2.077077     11.539519     11.539519     23.079039
     -2.067067      9.298080      9.298080     18.596160
     -2.057057      7.060363      7.060363     14.120726
     -2.047047      5.010255      5.010255     10.020510
     -2.037037      3.305698      3.305698      6.611395
     -2.027027      2.022011      2.022011      4.044022
     -2.017017      1.145841      1.145841      2.291681
     -2.007007      0.604886      0.604886      1.209772
     -1.996997      0.308525      0.308525      0.617050
     -1.986987      0.180924      0.180924      0.361847
     -1.976977      0.180571      0.180571      0.361141
     -1.966967      0.308873      0.308873      0.617745
     -1.956957      0.611939      0.611939      1.223879
     -1.946947      1.175982      1.175982      2.351963
     -1.936937      2.112404      2.112404      4.224808
     -1.926927      3.528231      3.528231      7.056463
     -1.916917      5.483280      5.483280     10.966559
     -1.906907      7.945405      7.945405     15.890809
     -1.896897     10.762995     10.762995     21.525990
     -1.886887     13.672407     13.672407     27.344814
     -1.876877     16.345465     16.345465     32.690930
     -1.866867     18.464821     18.464821     36.929641
     -1.856857     19.803175     19.803175     39.606350
     -1.846847     20.281585     20.281585     40.563170
     -1.836837     19.989240     19.989240     39.978480
     -1.826827     19.156126     19.156126     38.312252
     -1.816817     18.080250     18.080250     36.160500
     -1.806807     17.026253     17.026253     34.052506
     -1.796797     16.130606     16.130606     32.261212
     -1.786787     15.357138     15.357138     30.714276
     -1.776777     14.530841     14.530841     29.061682
     -1.766767     13.439181     13.439181     26.878362
     -1.756757     11.951386     11.951386     23.902773
     -1.746747     10.095634     10.095634     20.191267
     -1.736737      8.060798      8.060798     16.121597
     -1.726727      6.134538      6.134538     12.269075
     -1.716717      4.620997      4.620997      9.241994
     -1.706707      3.779994      3.779994      7.559989
     -1.696697      3.801321      3.801321      7.602643
     -1.686687      4.796943      4.796943      9.593886
     -1.676677      6.783101      6.783101     13.566202
     -1.666667      9.640242      9.640242     19.280484
     -1.656657     13.069132     13.069132     26.138264
     -1.646647     16.584094     16.584094     33.168189
     -1.636637     19.580070     19.580070     39.160140
     -1.626627     21.476271     21.476271     42.952541
