# EIG2DOS: Utility for SIESTA to obtain the electronic density of states
#  E. Artacho, Apr 1999, A. Garcia, Apr 2012
#  Nick R. Papior, Feb 2017
# ------------------------------------------
# Eigenvalues calculated from a non-polarized calculation
# Eigenvalues read from siesta.EIG
# Kpoint weights read from siesta.KP
# Using smearing parameter:   0.0500
# Using 1000 points in the energy range
# Selected bands: 1 to: 2981
# Emin, Emax in file for selected band(s):    -27.1968231    218.3435800
# Nbands, Nspin, Nk   =   2981     1     1
# E_F                 =    -4.2642 eV --> (shifted to ZERO)
# Broadening          =     0.0500 eV
#
#        E            N(up)  (=)   N(down)         Ntot
     -5.000000     33.905087     33.905087     67.810174
     -4.989990     37.641958     37.641958     75.283916
     -4.979980     40.847298     40.847298     81.694595
     -4.969970     43.030817     43.030817     86.061634
     -4.959960     43.832396     43.832396     87.664792
     -4.949950     43.126802     43.126802     86.253603
     -4.939940     41.071259     41.071259     82.142518
     -4.929930     38.087117     38.087117     76.174234
     -4.919920     34.795287     34.795287     69.590573
     -4.909910     31.931417     31.931417     63.862833
     -4.899900     30.248811     30.248811     60.497622
     -4.889890     30.394556     30.394556     60.789111
     -4.879880     32.745958     32.745958     65.491916
     -4.869870     37.232722     37.232722     74.465445
     -4.859860     43.222953     43.222953     86.445905
     -4.849850     49.570457     49.570457     99.140914
     -4.839840     54.871038     54.871038    109.742077
     -4.829830     57.869201     57.869201    115.738402
     -4.819820     57.857216     57.857216    115.714431
     -4.809810     54.887886     54.887886    109.775773
     -4.799800     49.705621     49.705621     99.411242
     -4.789790     43.440656     43.440656     86.881312
     -4.779780     37.220877     37.220877     74.441753
     -4.769770     31.870287     31.870287     63.740574
     -4.759760     27.787070     27.787070     55.574140
     -4.749750     24.989309     24.989309     49.978618
     -4.739740     23.249538     23.249538     46.499075
     -4.729730     22.234611     22.234611     44.469222
     -4.719720     21.603453     21.603453     43.206906
     -4.709710     21.056176     21.056176     42.112352
     -4.699700     20.353001     20.353001     40.706002
     -4.689690     19.328280     19.328280     38.656561
     -4.679680     17.917953     17.917953     35.835907
     -4.669670     16.202008     16.202008     32.404016
     -4.659660     14.443904     14.443904     28.887809
     -4.649650     13.097580     13.097580     26.195160
     -4.639640     12.757388     12.757388     25.514777
     -4.629630     14.044499     14.044499     28.088998
     -4.619620     17.445318     17.445318     34.890636
     -4.609610     23.136629     23.136629     46.273259
     -4.599600     30.846831     30.846831     61.693662
     -4.589590     39.809829     39.809829     79.619659
     -4.579580     48.858005     48.858005     97.716010
     -4.569570     56.663652     56.663652    113.327304
     -4.559560     62.079156     62.079156    124.158312
     -4.549550     64.469450     64.469450    128.938900
     -4.539540     63.909278     63.909278    127.818556
     -4.529530     61.153643     61.153643    122.307286
     -4.519520     57.375360     57.375360    114.750721
     -4.509510     53.762728     53.762728    107.525456
     -4.499499     51.133986     51.133986    102.267972
     -4.489489     49.718122     49.718122     99.436243
     -4.479479     49.174361     49.174361     98.348721
     -4.469469     48.815085     48.815085     97.630170
     -4.459459     47.915212     47.915212     95.830424
     -4.449449     45.974329     45.974329     91.948658
     -4.439439     42.845661     42.845661     85.691322
     -4.429429     38.722959     38.722959     77.445917
     -4.419419     34.037299     34.037299     68.074597
     -4.409409     29.332398     29.332398     58.664795
     -4.399399     25.161822     25.161822     50.323643
     -4.389389     22.011873     22.011873     44.023747
     -4.379379     20.232183     20.232183     40.464367
     -4.369369     19.966108     19.966108     39.932215
     -4.359359     21.101368     21.101368     42.202737
     -4.349349     23.278553     23.278553     46.557107
     -4.339339     25.980595     25.980595     51.961189
     -4.329329     28.685867     28.685867     57.371733
     -4.319319     31.028651     31.028651     62.057303
     -4.309309     32.900690     32.900690     65.801380
     -4.299299     34.452468     34.452468     68.904937
     -4.289289     35.995393     35.995393     71.990787
     -4.279279     37.841835     37.841835     75.683670
     -4.269269     40.137261     40.137261     80.274522
     -4.259259     42.740946     42.740946     85.481893
     -4.249249     45.204831     45.204831     90.409661
     -4.239239     46.879414     46.879414     93.758828
     -4.229229     47.132219     47.132219     94.264437
     -4.219219     45.605571     45.605571     91.211142
     -4.209209     42.399252     42.399252     84.798504
     -4.199199     38.078794     38.078794     76.157589
     -4.189189     33.489473     33.489473     66.978947
     -4.179179     29.458138     29.458138     58.916276
     -4.169169     26.525139     26.525139     53.050278
     -4.159159     24.827469     24.827469     49.654937
     -4.149149     24.168135     24.168135     48.336269
     -4.139139     24.211719     24.211719     48.423439
     -4.129129     24.694117     24.694117     49.388234
     -4.119119     25.542465     25.542465     51.084931
     -4.109109     26.853356     26.853356     53.706713
     -4.099099     28.746362     28.746362     57.492724
     -4.089089     31.171539     31.171539     62.343078
     -4.079079     33.781075     33.781075     67.562149
     -4.069069     35.955910     35.955910     71.911821
     -4.059059     37.004183     37.004183     74.008365
     -4.049049     36.450389     36.450389     72.900779
     -4.039039     34.270472     34.270472     68.540944
     -4.029029     30.945995     30.945995     61.891989
     -4.019019     27.306593     27.306593     54.613185
     -4.009009     24.244678     24.244678     48.489355
     -3.998999     22.446550     22.446550     44.893101
     -3.988989     22.255137     22.255137     44.510273
     -3.978979     23.689173     23.689173     47.378346
     -3.968969     26.557108     26.557108     53.114216
     -3.958959     30.575066     30.575066     61.150133
     -3.948949     35.433451     35.433451     70.866902
     -3.938939     40.816869     40.816869     81.633738
     -3.928929     46.416805     46.416805     92.833611
     -3.918919     51.963570     51.963570    103.927141
     -3.908909     57.263279     57.263279    114.526558
     -3.898899     62.198400     62.198400    124.396800
     -3.888889     66.664116     66.664116    133.328232
     -3.878879     70.459787     70.459787    140.919575
     -3.868869     73.200623     73.200623    146.401247
     -3.858859     74.324077     74.324077    148.648154
     -3.848849     73.226432     73.226432    146.452864
     -3.838839     69.495412     69.495412    138.990825
     -3.828829     63.142537     63.142537    126.285074
     -3.818819     54.721923     54.721923    109.443846
     -3.808809     45.264630     45.264630     90.529259
     -3.798799     36.039442     36.039442     72.078884
     -3.788789     28.227844     28.227844     56.455687
     -3.778779     22.632380     22.632380     45.264760
     -3.768769     19.512925     19.512925     39.025851
     -3.758759     18.586616     18.586616     37.173232
     -3.748749     19.169199     19.169199     38.338397
     -3.738739     20.401283     20.401283     40.802565
     -3.728729     21.494644     21.494644     42.989287
     -3.718719     21.940758     21.940758     43.881516
     -3.708709     21.636292     21.636292     43.272585
     -3.698699     20.895763     20.895763     41.791526
     -3.688689     20.342611     20.342611     40.685223
     -3.678679     20.698740     20.698740     41.397481
     -3.668669     22.525911     22.525911     45.051822
     -3.658659     25.999341     25.999341     51.998682
     -3.648649     30.797825     30.797825     61.595651
     -3.638639     36.162624     36.162624     72.325248
     -3.628629     41.112998     41.112998     82.225996
     -3.618619     44.737045     44.737045     89.474090
     -3.608609     46.442174     46.442174     92.884348
     -3.598599     46.074206     46.074206     92.148411
     -3.588589     43.883575     43.883575     87.767150
     -3.578579     40.386098     40.386098     80.772197
     -3.568569     36.192965     36.192965     72.385931
     -3.558559     31.865484     31.865484     63.730968
     -3.548549     27.815143     27.815143     55.630286
     -3.538539     24.251038     24.251038     48.502076
     -3.528529     21.178792     21.178792     42.357585
     -3.518519     18.456666     18.456666     36.913331
     -3.508509     15.898260     15.898260     31.796521
     -3.498498     13.384941     13.384941     26.769882
     -3.488488     10.939372     10.939372     21.878743
     -3.478478      8.728944      8.728944     17.457889
     -3.468468      7.003360      7.003360     14.006721
     -3.458458      5.999142      5.999142     11.998283
     -3.448448      5.849708      5.849708     11.699416
     -3.438438      6.528028      6.528028     13.056057
     -3.428428      7.835220      7.835220     15.670441
     -3.418418      9.440656      9.440656     18.881312
     -3.408408     10.971303     10.971303     21.942606
     -3.398398     12.131863     12.131863     24.263726
     -3.388388     12.816442     12.816442     25.632884
     -3.378378     13.163558     13.163558     26.327117
     -3.368368     13.523578     13.523578     27.047155
     -3.358358     14.346427     14.346427     28.692854
     -3.348348     16.033861     16.033861     32.067722
     -3.338338     18.810017     18.810017     37.620035
     -3.328328     22.643194     22.643194     45.286388
     -3.318318     27.222178     27.222178     54.444356
     -3.308308     31.978951     31.978951     63.957903
     -3.298298     36.161563     36.161563     72.323127
     -3.288288     38.972765     38.972765     77.945531
     -3.278278     39.772237     39.772237     79.544474
     -3.268268     38.291568     38.291568     76.583136
     -3.258258     34.768653     34.768653     69.537306
     -3.248248     29.917121     29.917121     59.834242
     -3.238238     24.716746     24.716746     49.433493
     -3.228228     20.102249     20.102249     40.204498
     -3.218218     16.681373     16.681373     33.362747
     -3.208208     14.596724     14.596724     29.193448
     -3.198198     13.574820     13.574820     27.149639
     -3.188188     13.123783     13.123783     26.247566
     -3.178178     12.787414     12.787414     25.574828
     -3.168168     12.354314     12.354314     24.708627
     -3.158158     11.950128     11.950128     23.900256
     -3.148148     11.990290     11.990290     23.980581
     -3.138138     13.018744     13.018744     26.037488
     -3.128128     15.490187     15.490187     30.980374
     -3.118118     19.565224     19.565224     39.130449
     -3.108108     24.983336     24.983336     49.966672
     -3.098098     31.061024     31.061024     62.122048
     -3.088088     36.830520     36.830520     73.661040
     -3.078078     41.288409     41.288409     82.576819
     -3.068068     43.675843     43.675843     87.351685
     -3.058058     43.687194     43.687194     87.374388
     -3.048048     41.523866     41.523866     83.047733
     -3.038038     37.774042     37.774042     75.548083
     -3.028028     33.178430     33.178430     66.356860
     -3.018018     28.392933     28.392933     56.785865
     -3.008008     23.851376     23.851376     47.702752
     -2.997998     19.769772     19.769772     39.539544
     -2.987988     16.256148     16.256148     32.512296
     -2.977978     13.442584     13.442584     26.885167
     -2.967968     11.560777     11.560777     23.121554
     -2.957958     10.925708     10.925708     21.851417
     -2.947948     11.840811     11.840811     23.681622
     -2.937938     14.467483     14.467483     28.934966
     -2.927928     18.708538     18.708538     37.417075
     -2.917918     24.149247     24.149247     48.298493
     -2.907908     30.087219     30.087219     60.174439
     -2.897898     35.660464     35.660464     71.320928
     -2.887888     40.048859     40.048859     80.097718
     -2.877878     42.687474     42.687474     85.374948
     -2.867868     43.411585     43.411585     86.823170
     -2.857858     42.470594     42.470594     84.941187
     -2.847848     40.400116     40.400116     80.800233
     -2.837838     37.804923     37.804923     75.609846
     -2.827828     35.146987     35.146987     70.293974
     -2.817818     32.629175     32.629175     65.258350
     -2.807808     30.216423     30.216423     60.432846
     -2.797798     27.767292     27.767292     55.534584
     -2.787788     25.195611     25.195611     50.391221
     -2.777778     22.572442     22.572442     45.144883
     -2.767768     20.117528     20.117528     40.235056
     -2.757758     18.094871     18.094871     36.189742
     -2.747748     16.682232     16.682232     33.364463
     -2.737738     15.897162     15.897162     31.794325
     -2.727728     15.624399     15.624399     31.248797
     -2.717718     15.723106     15.723106     31.446212
     -2.707708     16.138882     16.138882     32.277764
     -2.697698     16.940294     16.940294     33.880589
     -2.687688     18.249343     18.249343     36.498686
     -2.677678     20.109088     20.109088     40.218175
     -2.667668     22.380346     22.380346     44.760692
     -2.657658     24.746905     24.746905     49.493811
     -2.647648     26.839478     26.839478     53.678955
     -2.637638     28.407684     28.407684     56.815368
     -2.627628     29.433377     29.433377     58.866755
     -2.617618     30.114960     30.114960     60.229921
     -2.607608     30.736609     30.736609     61.473219
     -2.597598     31.507807     31.507807     63.015615
     -2.587588     32.466631     32.466631     64.933262
     -2.577578     33.483972     33.483972     66.967945
     -2.567568     34.334624     34.334624     68.669248
     -2.557558     34.771674     34.771674     69.543348
     -2.547548     34.569152     34.569152     69.138303
     -2.537538     33.548525     33.548525     67.097050
     -2.527528     31.625473     31.625473     63.250947
     -2.517518     28.884844     28.884844     57.769688
     -2.507508     25.642894     25.642894     51.285788
     -2.497497     22.435328     22.435328     44.870656
     -2.487487     19.900389     19.900389     39.800779
     -2.477477     18.588066     18.588066     37.176131
     -2.467467     18.775961     18.775961     37.551922
     -2.457457     20.377753     20.377753     40.755506
     -2.447447     22.989752     22.989752     45.979505
     -2.437437     26.057631     26.057631     52.115262
     -2.427427     29.089577     29.089577     58.179155
     -2.417417     31.819385     31.819385     63.638770
     -2.407407     34.244718     34.244718     68.489437
     -2.397397     36.524283     36.524283     73.048566
     -2.387387     38.786658     38.786658     77.573317
     -2.377377     40.949637     40.949637     81.899274
     -2.367367     42.648179     42.648179     85.296359
     -2.357357     43.319857     43.319857     86.639714
     -2.347347     42.420722     42.420722     84.841445
     -2.337337     39.678015     39.678015     79.356029
     -2.327327     35.263356     35.263356     70.526711
     -2.317317     29.805172     29.805172     59.610343
     -2.307307     24.234623     24.234623     48.469247
     -2.297297     19.533603     19.533603     39.067207
     -2.287287     16.486551     16.486551     32.973101
     -2.277277     15.518458     15.518458     31.036916
     -2.267267     16.650903     16.650903     33.301806
     -2.257257     19.559881     19.559881     39.119762
     -2.247247     23.694139     23.694139     47.388279
     -2.237237     28.409759     28.409759     56.819518
     -2.227227     33.085074     33.085074     66.170147
     -2.217217     37.193032     37.193032     74.386064
     -2.207207     40.326040     40.326040     80.652080
     -2.197197     42.189662     42.189662     84.379324
     -2.187187     42.596466     42.596466     85.192933
     -2.177177     41.486395     41.486395     82.972790
     -2.167167     38.971958     38.971958     77.943916
     -2.157157     35.371694     35.371694     70.743388
     -2.147147     31.182170     31.182170     62.364341
     -2.137137     26.965706     26.965706     53.931412
     -2.127127     23.186090     23.186090     46.372180
     -2.117117     20.069341     20.069341     40.138682
     -2.107107     17.564307     17.564307     35.128614
     -2.097097     15.424878     15.424878     30.849756
     -2.087087     13.366516     13.366516     26.733032
     -2.077077     11.211622     11.211622     22.423243
     -2.067067      8.954258      8.954258     17.908516
     -2.057057      6.728947      6.728947     13.457895
     -2.047047      4.721283      4.721283      9.442567
     -2.037037      3.078322      3.078322      6.156644
     -2.027027      1.860238      1.860238      3.720476
     -2.017017      1.041480      1.041480      2.082959
     -2.007007      0.543752      0.543752      1.087503
     -1.996997      0.276159      0.276159      0.552318
     -1.986987      0.165994      0.165994      0.331988
     -1.976977      0.175961      0.175961      0.351923
     -1.966967      0.311393      0.311393      0.622785
     -1.956957      0.621586      0.621586      1.243171
     -1.946947      1.195275      1.195275      2.390550
     -1.936937      2.145898      2.145898      4.291795
     -1.926927      3.582156      3.582156      7.164312
     -1.916917      5.565417      5.565417     11.130834
     -1.906907      8.065774      8.065774     16.131547
     -1.896897     10.936678     10.936678     21.873355
     -1.886887     13.926707     13.926707     27.853414
     -1.876877     16.733929     16.733929     33.467858
     -1.866867     19.089187     19.089187     38.178374
     -1.856857     20.839648     20.839648     41.679296
     -1.846847     22.000050     22.000050     44.000101
     -1.836837     22.746625     22.746625     45.493250
     -1.826827     23.345003     23.345003     46.690006
     -1.816817     24.027393     24.027393     48.054787
     -1.806807     24.862331     24.862331     49.724662
     -1.796797     25.679177     25.679177     51.358353
     -1.786787     26.099490     26.099490     52.198980
     -1.776777     25.680303     25.680303     51.360606
     -1.766767     24.110787     24.110787     48.221575
     -1.756757     21.365707     21.365707     42.731414
     -1.746747     17.737508     17.737508     35.475016
     -1.736737     13.735678     13.735678     27.471356
     -1.726727      9.913015      9.913015     19.826030
     -1.716717      6.708095      6.708095     13.416189
     -1.706707      4.368451      4.368451      8.736903
     -1.696697      2.963906      2.963906      5.927811
     -1.686687      2.452114      2.452114      4.904227
     -1.676677      2.742827      2.742827      5.485655
     -1.666667      3.723826      3.723826      7.447653
     -1.656657      5.244232      5.244232     10.488463
     -1.646647      7.081117      7.081117     14.162234
     -1.636637      8.928626      8.928626     17.857252
     -1.626627     10.438712     10.438712     20.877424
