# EIG2DOS: Utility for SIESTA to obtain the electronic density of states
#  E. Artacho, Apr 1999, A. Garcia, Apr 2012
#  Nick R. Papior, Feb 2017
# ------------------------------------------
# Eigenvalues calculated from a non-polarized calculation
# Eigenvalues read from siesta.EIG
# Kpoint weights read from siesta.KP
# Using smearing parameter:   0.0500
# Using 1000 points in the energy range
# Selected bands: 1 to: 2981
# Emin, Emax in file for selected band(s):    -27.0533799    218.3184850
# Nbands, Nspin, Nk   =   2981     1     1
# E_F                 =    -4.2915 eV --> (shifted to ZERO)
# Broadening          =     0.0500 eV
#
#        E            N(up)  (=)   N(down)         Ntot
     -5.000000     45.340284     45.340284     90.680567
     -4.989990     48.962099     48.962099     97.924199
     -4.979980     51.040678     51.040678    102.081355
     -4.969970     51.388109     51.388109    102.776219
     -4.959960     50.069318     50.069318    100.138636
     -4.949950     47.367996     47.367996     94.735992
     -4.939940     43.718158     43.718158     87.436315
     -4.929930     39.639641     39.639641     79.279281
     -4.919920     35.701802     35.701802     71.403605
     -4.909910     32.510312     32.510312     65.020625
     -4.899900     30.683637     30.683637     61.367274
     -4.889890     30.775635     30.775635     61.551270
     -4.879880     33.122664     33.122664     66.245329
     -4.869870     37.648164     37.648164     75.296328
     -4.859860     43.718957     43.718957     87.437915
     -4.849850     50.168765     50.168765    100.337530
     -4.839840     55.549782     55.549782    111.099565
     -4.829830     58.555636     58.555636    117.111272
     -4.819820     58.446466     58.446466    116.892932
     -4.809810     55.279877     55.279877    110.559754
     -4.799800     49.840483     49.840483     99.680966
     -4.789790     43.314917     43.314917     86.629833
     -4.779780     36.880095     36.880095     73.760189
     -4.769770     31.387553     31.387553     62.775105
     -4.759760     27.241295     27.241295     54.482591
     -4.749750     24.451711     24.451711     48.903421
     -4.739740     22.778052     22.778052     45.556104
     -4.729730     21.871549     21.871549     43.743097
     -4.719720     21.373165     21.373165     42.746329
     -4.709710     20.963086     20.963086     41.926172
     -4.699700     20.381638     20.381638     40.763277
     -4.689690     19.445064     19.445064     38.890129
     -4.679680     18.072244     18.072244     36.144487
     -4.669670     16.324247     16.324247     32.648495
     -4.659660     14.441828     14.441828     28.883655
     -4.649650     12.854888     12.854888     25.709776
     -4.639640     12.139794     12.139794     24.279588
     -4.629630     12.914109     12.914109     25.828217
     -4.619620     15.677369     15.677369     31.354739
     -4.609610     20.627306     20.627306     41.254612
     -4.599600     27.503341     27.503341     55.006683
     -4.589590     35.526893     35.526893     71.053786
     -4.579580     43.502176     43.502176     87.004351
     -4.569570     50.093880     50.093880    100.187759
     -4.559560     54.216164     54.216164    108.432328
     -4.549550     55.391887     55.391887    110.783773
     -4.539540     53.924780     53.924780    107.849560
     -4.529530     50.794376     50.794376    101.588752
     -4.519520     47.305617     47.305617     94.611235
     -4.509510     44.636566     44.636566     89.273131
     -4.499499     43.468244     43.468244     86.936488
     -4.489489     43.832809     43.832809     87.665618
     -4.479479     45.211320     45.211320     90.422641
     -4.469469     46.806929     46.806929     93.613857
     -4.459459     47.861426     47.861426     95.722852
     -4.449449     47.890110     47.890110     95.780220
     -4.439439     46.767122     46.767122     93.534244
     -4.429429     44.667784     44.667784     89.335567
     -4.419419     41.931841     41.931841     83.863682
     -4.409409     38.929291     38.929291     77.858581
     -4.399399     35.985004     35.985004     71.970008
     -4.389389     33.367536     33.367536     66.735072
     -4.379379     31.303699     31.303699     62.607398
     -4.369369     29.972216     29.972216     59.944433
     -4.359359     29.460889     29.460889     58.921778
     -4.349349     29.716161     29.716161     59.432322
     -4.339339     30.534706     30.534706     61.069411
     -4.329329     31.625506     31.625506     63.251011
     -4.319319     32.723745     32.723745     65.447491
     -4.309309     33.700751     33.700751     67.401503
     -4.299299     34.613118     34.613118     69.226235
     -4.289289     35.665667     35.665667     71.331333
     -4.279279     37.102411     37.102411     74.204823
     -4.269269     39.065855     39.065855     78.131709
     -4.259259     41.474547     41.474547     82.949095
     -4.249249     43.968671     43.968671     87.937341
     -4.239239     45.963028     45.963028     91.926055
     -4.229229     46.815537     46.815537     93.631073
     -4.219219     46.064881     46.064881     92.129762
     -4.209209     43.638008     43.638008     87.276015
     -4.199199     39.918969     39.918969     79.837939
     -4.189189     35.628527     35.628527     71.257055
     -4.179179     31.563486     31.563486     63.126972
     -4.169169     28.322846     28.322846     56.645693
     -4.159159     26.151734     26.151734     52.303468
     -4.149149     24.963062     24.963062     49.926125
     -4.139139     24.500099     24.500099     49.000197
     -4.129129     24.538075     24.538075     49.076150
     -4.119119     25.016965     25.016965     50.033930
     -4.109109     26.041200     26.041200     52.082400
     -4.099099     27.749566     27.749566     55.499133
     -4.089089     30.124273     30.124273     60.248547
     -4.079079     32.847873     32.847873     65.695747
     -4.069069     35.306892     35.306892     70.613785
     -4.059059     36.773089     36.773089     73.546178
     -4.049049     36.693293     36.693293     73.386587
     -4.039039     34.944986     34.944986     69.889973
     -4.029029     31.920855     31.920855     63.841710
     -4.019019     28.396216     28.396216     56.792433
     -4.009009     25.252918     25.252918     50.505835
     -3.998999     23.204075     23.204075     46.408149
     -3.988989     22.643026     22.643026     45.286052
     -3.978979     23.649594     23.649594     47.299187
     -3.968969     26.094566     26.094566     52.189132
     -3.958959     29.749421     29.749421     59.498843
     -3.948949     34.343531     34.343531     68.687061
     -3.938939     39.575400     39.575400     79.150800
     -3.928929     45.122929     45.122929     90.245859
     -3.918919     50.683930     50.683930    101.367860
     -3.908909     56.031570     56.031570    112.063139
     -3.898899     61.035027     61.035027    122.070053
     -3.888889     65.605993     65.605993    131.211987
     -3.878879     69.582528     69.582528    139.165056
     -3.868869     72.617220     72.617220    145.234441
     -3.858859     74.155928     74.155928    148.311855
     -3.848849     73.557791     73.557791    147.115582
     -3.838839     70.332113     70.332113    140.664226
     -3.828829     64.394428     64.394428    128.788857
     -3.818819     56.217240     56.217240    112.434479
     -3.808809     46.790378     46.790378     93.580757
     -3.798799     37.392306     37.392306     74.784612
     -3.788789     29.258645     29.258645     58.517290
     -3.778779     23.272408     23.272408     46.544816
     -3.768769     19.778241     19.778241     39.556483
     -3.758759     18.562929     18.562929     37.125857
     -3.748749     18.983478     18.983478     37.966955
     -3.738739     20.187429     20.187429     40.374857
     -3.728729     21.360493     21.360493     42.720987
     -3.718719     21.943151     21.943151     43.886302
     -3.708709     21.769706     21.769706     43.539413
     -3.698699     21.097590     21.097590     42.195181
     -3.688689     20.514358     20.514358     41.028716
     -3.678679     20.737910     20.737910     41.475820
     -3.668669     22.359445     22.359445     44.718890
     -3.658659     25.608037     25.608037     51.216074
     -3.648649     30.223527     30.223527     60.447055
     -3.638639     35.496130     35.496130     70.992260
     -3.628629     40.468214     40.468214     80.936428
     -3.618619     44.222040     44.222040     88.444081
     -3.608609     46.137378     46.137378     92.274757
     -3.598599     46.022420     46.022420     92.044841
     -3.588589     44.089865     44.089865     88.179730
     -3.578579     40.822612     40.822612     81.645223
     -3.568569     36.805532     36.805532     73.611065
     -3.558559     32.582362     32.582362     65.164724
     -3.548549     28.559270     28.559270     57.118540
     -3.538539     24.954542     24.954542     49.909083
     -3.528529     21.795129     21.795129     43.590258
     -3.518519     18.965371     18.965371     37.930743
     -3.508509     16.300760     16.300760     32.601520
     -3.498498     13.694551     13.694551     27.389101
     -3.488488     11.171046     11.171046     22.342093
     -3.478478      8.893173      8.893173     17.786347
     -3.468468      7.105405      7.105405     14.210811
     -3.458458      6.042030      6.042030     12.084060
     -3.448448      5.838370      5.838370     11.676739
     -3.438438      6.472326      6.472326     12.944653
     -3.428428      7.750415      7.750415     15.500829
     -3.418418      9.344626      9.344626     18.689251
     -3.408408     10.878885     10.878885     21.757770
     -3.398398     12.048056     12.048056     24.096113
     -3.388388     12.731347     12.731347     25.462694
     -3.378378     13.051783     13.051783     26.103567
     -3.368368     13.349073     13.349073     26.698146
     -3.358358     14.071348     14.071348     28.142696
     -3.348348     15.628766     15.628766     31.257532
     -3.338338     18.263350     18.263350     36.526699
     -3.328328     21.969393     21.969393     43.938786
     -3.318318     26.467618     26.467618     52.935236
     -3.308308     31.222100     31.222100     62.444201
     -3.298298     35.500487     35.500487     71.000973
     -3.288288     38.493763     38.493763     76.987527
     -3.278278     39.500629     39.500629     79.001257
     -3.268268     38.136879     38.136879     76.273758
     -3.258258     34.485175     34.485175     68.970350
     -3.248248     29.101448     29.101448     58.202897
     -3.238238     22.855856     22.855856     45.711711
     -3.228228     16.672077     16.672077     33.344154
     -3.218218     11.279469     11.279469     22.558937
     -3.208208      7.075316      7.075316     14.150632
     -3.198198      4.127511      4.127511      8.255022
     -3.188188      2.280106      2.280106      4.560211
     -3.178178      1.293827      1.293827      2.587653
     -3.168168      0.964873      0.964873      1.929746
     -3.158158      1.195945      1.195945      2.391890
     -3.148148      2.018338      2.018338      4.036676
     -3.138138      3.572750      3.572750      7.145500
     -3.128128      6.054771      6.054771     12.109541
     -3.118118      9.630832      9.630832     19.261664
     -3.108108     14.339069     14.339069     28.678139
     -3.098098     20.003999     20.003999     40.007998
     -3.088088     26.202377     26.202377     52.404755
     -3.078078     32.308086     32.308086     64.616173
     -3.068068     37.614448     37.614448     75.228895
     -3.058058     41.496145     41.496145     82.992289
     -3.048048     43.551738     43.551738     87.103477
     -3.038038     43.676946     43.676946     87.353893
     -3.028028     42.054215     42.054215     84.108430
     -3.018018     39.082703     39.082703     78.165405
     -3.008008     35.289698     35.289698     70.579397
     -2.997998     31.252490     31.252490     62.504980
     -2.987988     27.534834     27.534834     55.069667
     -2.977978     24.628521     24.628521     49.257042
     -2.967968     22.897931     22.897931     45.795863
     -2.957958     22.540783     22.540783     45.081566
     -2.947948     23.580234     23.580234     47.160468
     -2.937938     25.885847     25.885847     51.771693
     -2.927928     29.201013     29.201013     58.402027
     -2.917918     33.155825     33.155825     66.311651
     -2.907908     37.270866     37.270866     74.541732
     -2.897898     40.985343     40.985343     81.970686
     -2.887888     43.741700     43.741700     87.483399
     -2.877878     45.120954     45.120954     90.241908
     -2.867868     44.974598     44.974598     89.949195
     -2.857858     43.479271     43.479271     86.958541
     -2.847848     41.070004     41.070004     82.140008
     -2.837838     38.271238     38.271238     76.542477
     -2.827828     35.502566     35.502566     71.005132
     -2.817818     32.952090     32.952090     65.904180
     -2.807808     30.574564     30.574564     61.149129
     -2.797798     28.204793     28.204793     56.409586
     -2.787788     25.716674     25.716674     51.433348
     -2.777778     23.137734     23.137734     46.275467
     -2.767768     20.658611     20.658611     41.317223
     -2.757758     18.539634     18.539634     37.079268
     -2.747748     16.976603     16.976603     33.953206
     -2.737738     16.010468     16.010468     32.020937
     -2.727728     15.536636     15.536636     31.073271
     -2.717718     15.405743     15.405743     30.811486
     -2.707708     15.547780     15.547780     31.095561
     -2.697698     16.034000     16.034000     32.068001
     -2.687688     17.029558     17.029558     34.059116
     -2.677678     18.661690     18.661690     37.323381
     -2.667668     20.887538     20.887538     41.775077
     -2.657658     23.451987     23.451987     46.903975
     -2.647648     25.971839     25.971839     51.943678
     -2.637638     28.101369     28.101369     56.202738
     -2.627628     29.680030     29.680030     59.360061
     -2.617618     30.774247     30.774247     61.548493
     -2.607608     31.595389     31.595389     63.190778
     -2.597598     32.355221     32.355221     64.710442
     -2.587588     33.151117     33.151117     66.302234
     -2.577578     33.937042     33.937042     67.874085
     -2.567568     34.567415     34.567415     69.134830
     -2.557558     34.858102     34.858102     69.716204
     -2.547548     34.623029     34.623029     69.246057
     -2.537538     33.693323     33.693323     67.386647
     -2.527528     31.956089     31.956089     63.912177
     -2.517518     29.430273     29.430273     58.860545
     -2.507508     26.346592     26.346592     52.693184
     -2.497497     23.166437     23.166437     46.332874
     -2.487487     20.494713     20.494713     40.989426
     -2.477477     18.902394     18.902394     37.804788
     -2.467467     18.733053     18.733053     37.466106
     -2.457457     19.984806     19.984806     39.969611
     -2.447447     22.326023     22.326023     44.652046
     -2.437437     25.239975     25.239975     50.479951
     -2.427427     28.232713     28.232713     56.465425
     -2.417417     31.008144     31.008144     62.016288
     -2.407407     33.528535     33.528535     67.057070
     -2.397397     35.932520     35.932520     71.865041
     -2.387387     38.352515     38.352515     76.705029
     -2.377377     40.725972     40.725972     81.451945
     -2.367367     42.703348     42.703348     85.406695
     -2.357357     43.713180     43.713180     87.426360
     -2.347347     43.169336     43.169336     86.338671
     -2.337337     40.732692     40.732692     81.465384
     -2.327327     36.507144     36.507144     73.014289
     -2.317317     31.077287     31.077287     62.154574
     -2.307307     25.369561     25.369561     50.739122
     -2.297297     20.398965     20.398965     40.797930
     -2.287287     17.005678     17.005678     34.011357
     -2.277277     15.672963     15.672963     31.345925
     -2.267267     16.467651     16.467651     32.935303
     -2.257257     19.092212     19.092212     38.184424
     -2.247247     23.006822     23.006822     46.013643
     -2.237237     27.573048     27.573048     55.146096
     -2.227227     32.177425     32.177425     64.354849
     -2.217217     36.306745     36.306745     72.613489
     -2.207207     39.567446     39.567446     79.134893
     -2.197197     41.667290     41.667290     83.334580
     -2.187187     42.397012     42.397012     84.794025
     -2.177177     41.646598     41.646598     83.293197
     -2.167167     39.459913     39.459913     78.919826
     -2.157157     36.089656     36.089656     72.179313
     -2.147147     31.994031     31.994031     63.988061
     -2.137137     27.739982     27.739982     55.479963
     -2.127127     23.836405     23.836405     47.672810
     -2.117117     20.574551     20.574551     41.149102
     -2.107107     17.960368     17.960368     35.920735
     -2.097097     15.774813     15.774813     31.549625
     -2.087087     13.725094     13.725094     27.450188
     -2.077077     11.601833     11.601833     23.203666
     -2.067067      9.363952      9.363952     18.727905
     -2.057057      7.124321      7.124321     14.248643
     -2.047047      5.066457      5.066457     10.132914
     -2.037037      3.350278      3.350278      6.700556
     -2.027027      2.053971      2.053971      4.107942
     -2.017017      1.166548      1.166548      2.333096
     -2.007007      0.616872      0.616872      1.233744
     -1.996997      0.314268      0.314268      0.628535
     -1.986987      0.181979      0.181979      0.363959
     -1.976977      0.177072      0.177072      0.354143
     -1.966967      0.299279      0.299279      0.598559
     -1.956957      0.593038      0.593038      1.186077
     -1.946947      1.143307      1.143307      2.286613
     -1.936937      2.061340      2.061340      4.122680
     -1.926927      3.455887      3.455887      6.911775
     -1.916917      5.390712      5.390712     10.781424
     -1.906907      7.839242      7.839242     15.678483
     -1.896897     10.655318     10.655318     21.310635
     -1.886887     13.578265     13.578265     27.156529
     -1.876877     16.278525     16.278525     32.557051
     -1.866867     18.432748     18.432748     36.865496
     -1.856857     19.804694     19.804694     39.609387
     -1.846847     20.306555     20.306555     40.613109
     -1.836837     20.021843     20.021843     40.043686
     -1.826827     19.180147     19.180147     38.360294
     -1.816817     18.084769     18.084769     36.169537
     -1.806807     17.009920     17.009920     34.019841
     -1.796797     16.103015     16.103015     32.206030
     -1.786787     15.336825     15.336825     30.673650
     -1.776777     14.541273     14.541273     29.082545
     -1.766767     13.506036     13.506036     27.012073
     -1.756757     12.105242     12.105242     24.210484
     -1.746747     10.382410     10.382410     20.764819
     -1.736737      8.557601      8.557601     17.115203
     -1.726727      6.961954      6.961954     13.923909
     -1.716717      5.937491      5.937491     11.874982
     -1.706707      5.744447      5.744447     11.488893
     -1.696697      6.500412      6.500412     13.000823
     -1.686687      8.155214      8.155214     16.310429
     -1.676677     10.496612     10.496612     20.993224
     -1.666667     13.183003     13.183003     26.366006
     -1.656657     15.800176     15.800176     31.600353
     -1.646647     17.934129     17.934129     35.868259
     -1.636637     19.245615     19.245615     38.491231
     -1.626627     19.531488     19.531488     39.062976
