# EIG2DOS: Utility for SIESTA to obtain the electronic density of states
#  E. Artacho, Apr 1999, A. Garcia, Apr 2012
#  Nick R. Papior, Feb 2017
# ------------------------------------------
# Eigenvalues calculated from a non-polarized calculation
# Eigenvalues read from siesta.EIG
# Kpoint weights read from siesta.KP
# Using smearing parameter:   0.0500
# Using 1000 points in the energy range
# Selected bands: 1 to: 2981
# Emin, Emax in file for selected band(s):    -27.1864608    218.3420480
# Nbands, Nspin, Nk   =   2981     1     1
# E_F                 =    -4.2651 eV --> (shifted to ZERO)
# Broadening          =     0.0500 eV
#
#        E            N(up)  (=)   N(down)         Ntot
     -5.000000     36.001916     36.001916     72.003833
     -4.989990     39.114881     39.114881     78.229762
     -4.979980     41.560780     41.560780     83.121560
     -4.969970     42.935916     42.935916     85.871831
     -4.959960     43.009275     43.009275     86.018551
     -4.949950     41.776091     41.776091     83.552182
     -4.939940     39.463235     39.463235     78.926470
     -4.929930     36.497396     36.497396     72.994793
     -4.919920     33.455717     33.455717     66.911434
     -4.909910     31.008696     31.008696     62.017393
     -4.899900     29.843781     29.843781     59.687563
     -4.889890     30.544937     30.544937     61.089873
     -4.879880     33.419939     33.419939     66.839878
     -4.869870     38.315744     38.315744     76.631488
     -4.859860     44.514031     44.514031     89.028062
     -4.849850     50.806474     50.806474    101.612949
     -4.839840     55.784057     55.784057    111.568114
     -4.829830     58.260407     58.260407    116.520814
     -4.819820     57.655943     57.655943    115.311887
     -4.809810     54.167082     54.167082    108.334164
     -4.799800     48.645921     48.645921     97.291842
     -4.789790     42.261065     42.261065     84.522130
     -4.779780     36.108357     36.108357     72.216715
     -4.769770     30.935758     30.935758     61.871516
     -4.759760     27.057390     27.057390     54.114780
     -4.749750     24.427321     24.427321     48.854642
     -4.739740     22.786580     22.786580     45.573160
     -4.729730     21.802004     21.802004     43.604007
     -4.719720     21.155194     21.155194     42.310388
     -4.709710     20.579602     20.579602     41.159204
     -4.699700     19.867163     19.867163     39.734325
     -4.689690     18.872869     18.872869     37.745738
     -4.679680     17.538714     17.538714     35.077427
     -4.669670     15.939449     15.939449     31.878898
     -4.659660     14.329148     14.329148     28.658296
     -4.649650     13.153404     13.153404     26.306807
     -4.639640     12.997366     12.997366     25.994733
     -4.629630     14.462306     14.462306     28.924612
     -4.619620     17.991887     17.991887     35.983773
     -4.609610     23.693962     23.693962     47.387924
     -4.599600     31.218659     31.218659     62.437318
     -4.589590     39.752023     39.752023     79.504045
     -4.579580     48.157637     48.157637     96.315274
     -4.569570     55.245978     55.245978    110.491956
     -4.559560     60.091973     60.091973    120.183946
     -4.549550     62.288077     62.288077    124.576154
     -4.539540     62.036857     62.036857    124.073715
     -4.529530     60.048622     60.048622    120.097244
     -4.519520     57.285190     57.285190    114.570379
     -4.509510     54.645511     54.645511    109.291022
     -4.499499     52.702772     52.702772    105.405543
     -4.489489     51.575962     51.575962    103.151924
     -4.479479     50.965223     50.965223    101.930445
     -4.469469     50.320001     50.320001    100.640003
     -4.459459     49.064960     49.064960     98.129920
     -4.449449     46.798104     46.798104     93.596208
     -4.439439     43.401425     43.401425     86.802849
     -4.429429     39.050624     39.050624     78.101248
     -4.419419     34.151206     34.151206     68.302412
     -4.409409     29.243005     29.243005     58.486011
     -4.399399     24.902541     24.902541     49.805083
     -4.389389     21.649874     21.649874     43.299749
     -4.379379     19.856358     19.856358     39.712715
     -4.369369     19.660955     19.660955     39.321909
     -4.359359     20.923266     20.923266     41.846532
     -4.349349     23.247650     23.247650     46.495300
     -4.339339     26.090851     26.090851     52.181702
     -4.329329     28.924669     28.924669     57.849337
     -4.319319     31.392180     31.392180     62.784360
     -4.309309     33.394351     33.394351     66.788702
     -4.299299     35.075187     35.075187     70.150374
     -4.289289     36.717088     36.717088     73.434177
     -4.279279     38.588930     38.588930     77.177860
     -4.269269     40.798048     40.798048     81.596097
     -4.259259     43.192440     43.192440     86.384879
     -4.249249     45.351198     45.351198     90.702397
     -4.239239     46.685814     46.685814     93.371628
     -4.229229     46.639928     46.639928     93.279856
     -4.219219     44.922668     44.922668     89.845335
     -4.209209     41.670829     41.670829     83.341659
     -4.199199     37.447471     37.447471     74.894941
     -4.189189     33.059068     33.059068     66.118136
     -4.179179     29.271208     29.271208     58.542417
     -4.169169     26.559966     26.559966     53.119932
     -4.159159     25.013924     25.013924     50.027849
     -4.149149     24.416511     24.416511     48.833022
     -4.139139     24.445300     24.445300     48.890600
     -4.129129     24.875134     24.875134     49.750268
     -4.119119     25.682034     25.682034     51.364069
     -4.109109     26.999810     26.999810     53.999621
     -4.099099     28.954191     28.954191     57.908382
     -4.089089     31.463427     31.463427     62.926854
     -4.079079     34.122773     34.122773     68.245547
     -4.069069     36.260893     36.260893     72.521786
     -4.059059     37.170237     37.170237     74.340475
     -4.049049     36.410768     36.410768     72.821536
     -4.039039     34.031051     34.031051     68.062102
     -4.029029     30.586359     30.586359     61.172719
     -4.019019     26.944141     26.944141     53.888281
     -4.009009     23.982859     23.982859     47.965717
     -3.998999     22.336339     22.336339     44.672678
     -3.988989     22.288149     22.288149     44.576299
     -3.978979     23.820045     23.820045     47.640089
     -3.968969     26.736585     26.736585     53.473170
     -3.958959     30.773625     30.773625     61.547250
     -3.948949     35.646513     35.646513     71.293026
     -3.938939     41.056526     41.056526     82.113051
     -3.928929     46.700981     46.700981     93.401963
     -3.918919     52.309279     52.309279    104.618558
     -3.908909     57.682204     57.682204    115.364408
     -3.898899     62.689023     62.689023    125.378045
     -3.888889     67.198656     67.198656    134.397313
     -3.878879     70.972473     70.972473    141.944947
     -3.868869     73.588579     73.588579    147.177157
     -3.858859     74.468343     74.468343    148.936687
     -3.848849     73.029666     73.029666    146.059331
     -3.838839     68.921582     68.921582    137.843164
     -3.828829     62.240118     62.240118    124.480235
     -3.818819     53.618541     53.618541    107.237083
     -3.808809     44.134180     44.134180     88.268360
     -3.798799     35.054675     35.054675     70.109351
     -3.788789     27.516039     27.516039     55.032078
     -3.778779     22.247971     22.247971     44.495942
     -3.768769     19.432690     19.432690     38.865381
     -3.758759     18.725294     18.725294     37.450588
     -3.748749     19.408853     19.408853     38.817706
     -3.738739     20.626210     20.626210     41.252420
     -3.728729     21.623631     21.623631     43.247263
     -3.718719     21.949201     21.949201     43.898403
     -3.708709     21.562274     21.562274     43.124547
     -3.698699     20.827228     20.827228     41.654455
     -3.688689     20.387447     20.387447     40.774893
     -3.678679     20.945271     20.945271     41.890542
     -3.668669     23.006340     23.006340     46.012680
     -3.658659     26.670213     26.670213     53.340426
     -3.648649     31.547164     31.547164     63.094328
     -3.638639     36.843052     36.843052     73.686104
     -3.628629     41.588142     41.588142     83.176284
     -3.618619     44.921839     44.921839     89.843678
     -3.608609     46.321116     46.321116     92.642232
     -3.598599     45.693572     45.693572     91.387144
     -3.588589     43.326317     43.326317     86.652634
     -3.578579     39.743630     39.743630     79.487259
     -3.568569     35.544337     35.544337     71.088673
     -3.558559     31.266506     31.266506     62.533013
     -3.548549     27.294784     27.294784     54.589568
     -3.538539     23.812503     23.812503     47.625005
     -3.528529     20.805220     20.805220     41.610441
     -3.518519     18.121936     18.121936     36.243872
     -3.508509     15.580787     15.580787     31.161574
     -3.498498     13.079347     13.079347     26.158695
     -3.488488     10.660891     10.660891     21.321782
     -3.478478      8.508752      8.508752     17.017505
     -3.468468      6.877185      6.877185     13.754369
     -3.458458      5.993636      5.993636     11.987272
     -3.448448      5.970768      5.970768     11.941536
     -3.438438      6.754079      6.754079     13.508158
     -3.428428      8.117847      8.117847     16.235694
     -3.418418      9.714217      9.714217     19.428434
     -3.408408     11.170909     11.170909     22.341818
     -3.398398     12.215263     12.215263     24.430525
     -3.388388     12.782185     12.782185     25.564370
     -3.378378     13.058084     13.058084     26.116168
     -3.368368     13.434027     13.434027     26.868053
     -3.358358     14.381254     14.381254     28.762508
     -3.348348     16.296176     16.296176     32.592353
     -3.338338     19.368365     19.368365     38.736730
     -3.328328     23.503832     23.503832     47.007663
     -3.318318     28.308937     28.308937     56.617875
     -3.308308     33.130330     33.130330     66.260660
     -3.298298     37.154362     37.154362     74.308724
     -3.288288     39.572639     39.572639     79.145278
     -3.278278     39.796328     39.796328     79.592656
     -3.268268     37.657455     37.657455     75.314911
     -3.258258     33.507756     33.507756     67.015512
     -3.248248     28.150061     28.150061     56.300122
     -3.238238     22.610330     22.610330     45.220660
     -3.228228     17.835975     17.835975     35.671951
     -3.218218     14.438708     14.438708     28.877416
     -3.208208     12.572594     12.572594     25.145188
     -3.198198     11.975083     11.975083     23.950166
     -3.188188     12.138021     12.138021     24.276042
     -3.178178     12.539253     12.539253     25.078506
     -3.168168     12.855261     12.855261     25.710523
     -3.158158     13.085932     13.085932     26.171865
     -3.148148     13.550448     13.550448     27.100896
     -3.138138     14.754479     14.754479     29.508959
     -3.128128     17.172760     17.172760     34.345520
     -3.118118     21.022641     21.022641     42.045281
     -3.108108     26.111254     26.111254     52.222509
     -3.098098     31.817711     31.817711     63.635423
     -3.088088     37.227396     37.227396     74.454792
     -3.078078     41.380291     41.380291     82.760582
     -3.068068     43.548121     43.548121     87.096241
     -3.058058     43.437168     43.437168     86.874337
     -3.048048     41.238792     41.238792     82.477585
     -3.038038     37.513114     37.513114     75.026229
     -3.028028     32.965602     32.965602     65.931204
     -3.018018     28.222603     28.222603     56.445206
     -3.008008     23.703192     23.703192     47.406383
     -2.997998     19.625462     19.625462     39.250925
     -2.987988     16.111667     16.111667     32.223334
     -2.977978     13.311932     13.311932     26.623864
     -2.967968     11.471757     11.471757     22.943514
     -2.957958     10.910640     10.910640     21.821281
     -2.947948     11.925991     11.925991     23.851983
     -2.937938     14.664326     14.664326     29.328651
     -2.927928     19.008080     19.008080     38.016160
     -2.917918     24.520880     24.520880     49.041761
     -2.907908     30.482138     30.482138     60.964276
     -2.897898     36.019728     36.019728     72.039457
     -2.887888     40.314875     40.314875     80.629751
     -2.877878     42.816354     42.816354     85.632708
     -2.867868     43.383082     43.383082     86.766164
     -2.857858     42.292603     42.292603     84.585206
     -2.847848     40.106186     40.106186     80.212371
     -2.837838     37.445475     37.445475     74.890949
     -2.827828     34.777205     34.777205     69.554411
     -2.817818     32.297762     32.297762     64.595524
     -2.807808     29.958775     29.958775     59.917550
     -2.797798     27.604170     27.604170     55.208339
     -2.787788     25.135381     25.135381     50.270761
     -2.777778     22.613458     22.613458     45.226916
     -2.767768     20.248390     20.248390     40.496781
     -2.757758     18.293470     18.293470     36.586939
     -2.747748     16.917198     16.917198     33.834397
     -2.737738     16.135034     16.135034     32.270069
     -2.727728     15.841844     15.841844     31.683689
     -2.717718     15.918366     15.918366     31.836732
     -2.707708     16.334268     16.334268     32.668535
     -2.697698     17.171108     17.171108     34.342216
     -2.687688     18.542813     18.542813     37.085625
     -2.677678     20.464770     20.464770     40.929541
     -2.667668     22.764872     22.764872     45.529744
     -2.657658     25.108590     25.108590     50.217181
     -2.647648     27.135974     27.135974     54.271947
     -2.637638     28.630571     28.630571     57.261142
     -2.627628     29.614313     29.614313     59.228627
     -2.617618     30.309028     30.309028     60.618057
     -2.607608     30.992583     30.992583     61.985165
     -2.597598     31.842411     31.842411     63.684821
     -2.587588     32.855616     32.855616     65.711231
     -2.577578     33.870980     33.870980     67.741961
     -2.567568     34.648917     34.648917     69.297833
     -2.557558     34.944868     34.944868     69.889736
     -2.547548     34.547731     34.547731     69.095462
     -2.537538     33.305181     33.305181     66.610362
     -2.527528     31.171715     31.171715     62.343430
     -2.517518     28.280776     28.280776     56.561552
     -2.507508     24.994922     24.994922     49.989844
     -2.497497     21.875153     21.875153     43.750307
     -2.487487     19.548432     19.548432     39.096865
     -2.477477     18.514683     18.514683     37.029365
     -2.467467     18.977282     18.977282     37.954563
     -2.457457     20.777344     20.777344     41.554688
     -2.447447     23.465797     23.465797     46.931594
     -2.437437     26.484075     26.484075     52.968150
     -2.427427     29.374356     29.374356     58.748712
     -2.417417     31.925673     31.925673     63.851347
     -2.407407     34.190026     34.190026     68.380053
     -2.397397     36.361735     36.361735     72.723470
     -2.387387     38.578155     38.578155     77.156310
     -2.377377     40.740745     40.740745     81.481490
     -2.367367     42.452066     42.452066     84.904132
     -2.357357     43.114801     43.114801     86.229601
     -2.347347     42.162435     42.162435     84.324870
     -2.337337     39.322845     39.322845     78.645690
     -2.327327     34.792644     34.792644     69.585288
     -2.317317     29.238947     29.238947     58.477894
     -2.307307     23.627684     23.627684     47.255368
     -2.297297     18.956634     18.956634     37.913268
     -2.287287     16.002897     16.002897     32.005793
     -2.277277     15.168100     15.168100     30.336200
     -2.267267     16.447239     16.447239     32.894478
     -2.257257     19.496985     19.496985     38.993969
     -2.247247     23.757348     23.757348     47.514696
     -2.237237     28.582669     28.582669     57.165339
     -2.227227     33.349829     33.349829     66.699659
     -2.217217     37.525452     37.525452     75.050904
     -2.207207     40.690361     40.690361     81.380722
     -2.197197     42.538239     42.538239     85.076479
     -2.187187     42.877421     42.877421     85.754843
     -2.177177     41.657677     41.657677     83.315353
     -2.167167     39.015743     39.015743     78.031486
     -2.157157     35.301206     35.301206     70.602411
     -2.147147     31.035830     31.035830     62.071660
     -2.137137     26.790143     26.790143     53.580287
     -2.127127     23.016210     23.016210     46.032421
     -2.117117     19.915817     19.915817     39.831635
     -2.107107     17.414713     17.414713     34.829426
     -2.097097     15.256669     15.256669     30.513338
     -2.087087     13.163493     13.163493     26.326985
     -2.077077     10.974518     10.974518     21.949036
     -2.067067      8.700786      8.700786     17.401572
     -2.057057      6.485264      6.485264     12.970529
     -2.047047      4.511017      4.511017      9.022034
     -2.037037      2.915023      2.915023      5.830046
     -2.027027      1.745746      1.745746      3.491492
     -2.017017      0.969085      0.969085      1.938170
     -2.007007      0.503318      0.503318      1.006636
     -1.996997      0.258788      0.258788      0.517575
     -1.986987      0.167241      0.167241      0.334482
     -1.976977      0.197773      0.197773      0.395546
     -1.966967      0.363138      0.363138      0.726275
     -1.956957      0.719933      0.719933      1.439865
     -1.946947      1.361814      1.361814      2.723628
     -1.936937      2.401219      2.401219      4.802439
     -1.926927      3.936245      3.936245      7.872491
     -1.916917      6.006621      6.006621     12.013242
     -1.906907      8.552919      8.552919     17.105837
     -1.896897     11.399104     11.399104     22.798207
     -1.886887     14.273866     14.273866     28.547732
     -1.876877     16.871141     16.871141     33.742283
     -1.866867     18.932912     18.932912     37.865824
     -1.856857     20.327438     20.327438     40.654877
     -1.846847     21.096613     21.096613     42.193225
     -1.836837     21.452711     21.452711     42.905422
     -1.826827     21.714194     21.714194     43.428388
     -1.816817     22.186044     22.186044     44.372087
     -1.806807     23.016711     23.016711     46.033422
     -1.796797     24.091820     24.091820     48.183641
     -1.786787     25.029745     25.029745     50.059491
     -1.776777     25.306590     25.306590     50.613179
     -1.766767     24.468894     24.468894     48.937788
     -1.756757     22.334809     22.334809     44.669619
     -1.746747     19.082698     19.082698     38.165396
     -1.736737     15.186870     15.186870     30.373741
     -1.726727     11.243852     11.243852     22.487705
     -1.716717      7.783813      7.783813     15.567625
     -1.706707      5.152131      5.152131     10.304261
     -1.696697      3.491235      3.491235      6.982471
     -1.686687      2.794261      2.794261      5.588522
     -1.676677      2.974021      2.974021      5.948043
     -1.666667      3.901254      3.901254      7.802508
     -1.656657      5.400128      5.400128     10.800256
     -1.646647      7.223708      7.223708     14.447417
     -1.636637      9.048715      9.048715     18.097431
     -1.626627     10.519479     10.519479     21.038958
