# EIG2DOS: Utility for SIESTA to obtain the electronic density of states
#  E. Artacho, Apr 1999, A. Garcia, Apr 2012
#  Nick R. Papior, Feb 2017
# ------------------------------------------
# Eigenvalues calculated from a non-polarized calculation
# Eigenvalues read from siesta.EIG
# Kpoint weights read from siesta.KP
# Using smearing parameter:   0.0500
# Using 1000 points in the energy range
# Selected bands: 1 to: 2981
# Emin, Emax in file for selected band(s):    -27.0529539    218.3236680
# Nbands, Nspin, Nk   =   2981     1     1
# E_F                 =    -4.2908 eV --> (shifted to ZERO)
# Broadening          =     0.0500 eV
#
#        E            N(up)  (=)   N(down)         Ntot
     -5.000000     42.015572     42.015572     84.031144
     -4.989990     43.378184     43.378184     86.756369
     -4.979980     44.220487     44.220487     88.440974
     -4.969970     44.388214     44.388214     88.776428
     -4.959960     43.725096     43.725096     87.450193
     -4.949950     42.164188     42.164188     84.328377
     -4.939940     39.796229     39.796229     79.592458
     -4.929930     36.897524     36.897524     73.795047
     -4.919920     33.921227     33.921227     67.842454
     -4.909910     31.459960     31.459960     62.919920
     -4.899900     30.174630     30.174630     60.349261
     -4.889890     30.671345     30.671345     61.342691
     -4.879880     33.319278     33.319278     66.638556
     -4.869870     38.046615     38.046615     76.093229
     -4.859860     44.206209     44.206209     88.412417
     -4.849850     50.619046     50.619046    101.238092
     -4.839840     55.845680     55.845680    111.691359
     -4.829830     58.618202     58.618202    117.236404
     -4.819820     58.257976     58.257976    116.515951
     -4.809810     54.886315     54.886315    109.772629
     -4.799800     49.331650     49.331650     98.663299
     -4.789790     42.791617     42.791617     85.583234
     -4.779780     36.423097     36.423097     72.846194
     -4.769770     31.039652     31.039652     62.079305
     -4.759760     27.005537     27.005537     54.011075
     -4.749750     24.301629     24.301629     48.603258
     -4.739740     22.673121     22.673121     45.346243
     -4.729730     21.772234     21.772234     43.544468
     -4.719720     21.252242     21.252242     42.504485
     -4.709710     20.811511     20.811511     41.623022
     -4.699700     20.208426     20.208426     40.416851
     -4.689690     19.272238     19.272238     38.544476
     -4.679680     17.927687     17.927687     35.855374
     -4.669670     16.235987     16.235987     32.471974
     -4.659660     14.435942     14.435942     28.871885
     -4.649650     12.956265     12.956265     25.912531
     -4.639640     12.372153     12.372153     24.744306
     -4.629630     13.295095     13.295095     26.590190
     -4.619620     16.207195     16.207195     32.414390
     -4.609610     21.274518     21.274518     42.549036
     -4.599600     28.196094     28.196094     56.392188
     -4.589590     36.158822     36.158822     72.317644
     -4.579580     43.956452     43.956452     87.912904
     -4.569570     50.279039     50.279039    100.558078
     -4.559560     54.098726     54.098726    108.197451
     -4.549550     55.010053     55.010053    110.020105
     -4.539540     53.376559     53.376559    106.753119
     -4.529530     50.207471     50.207471    100.414942
     -4.519520     46.806575     46.806575     93.613151
     -4.509510     44.336487     44.336487     88.672975
     -4.499499     43.471650     43.471650     86.943301
     -4.489489     44.260930     44.260930     88.521860
     -4.479479     46.218833     46.218833     92.437666
     -4.469469     48.568305     48.568305     97.136611
     -4.459459     50.512854     50.512854    101.025709
     -4.449449     51.434993     51.434993    102.869985
     -4.439439     50.980882     50.980882    101.961763
     -4.429429     49.056811     49.056811     98.113621
     -4.419419     45.794547     45.794547     91.589095
     -4.409409     41.526703     41.526703     83.053406
     -4.399399     36.768792     36.768792     73.537583
     -4.389389     32.169840     32.169840     64.339680
     -4.379379     28.398823     28.398823     56.797647
     -4.369369     25.979088     25.979088     51.958176
     -4.359359     25.133739     25.133739     50.267478
     -4.349349     25.720701     25.720701     51.441402
     -4.339339     27.300256     27.300256     54.600512
     -4.329329     29.311344     29.311344     58.622688
     -4.319319     31.278155     31.278155     62.556309
     -4.309309     32.958309     32.958309     65.916618
     -4.299299     34.379399     34.379399     68.758797
     -4.289289     35.764743     35.764743     71.529487
     -4.279279     37.389669     37.389669     74.779337
     -4.269269     39.422746     39.422746     78.845492
     -4.259259     41.801634     41.801634     83.603268
     -4.249249     44.185259     44.185259     88.370519
     -4.239239     46.013433     46.013433     92.026865
     -4.229229     46.677274     46.677274     93.354547
     -4.219219     45.753196     45.753196     91.506392
     -4.209209     43.202721     43.202721     86.405442
     -4.199199     39.432593     39.432593     78.865186
     -4.189189     35.168176     35.168176     70.336352
     -4.179179     31.191978     31.191978     62.383956
     -4.169169     28.075188     28.075188     56.150376
     -4.159159     26.031298     26.031298     52.062596
     -4.149149     24.948142     24.948142     49.896283
     -4.139139     24.557750     24.557750     49.115501
     -4.129129     24.639601     24.639601     49.279202
     -4.119119     25.148572     25.148572     50.297144
     -4.109109     26.204868     26.204868     52.409736
     -4.099099     27.953183     27.953183     55.906366
     -4.089089     30.365777     30.365777     60.731553
     -4.079079     33.102682     33.102682     66.205363
     -4.069069     35.527694     35.527694     71.055387
     -4.059059     36.904783     36.904783     73.809565
     -4.049049     36.696539     36.696539     73.393078
     -4.039039     34.815527     34.815527     69.631055
     -4.029029     31.693406     31.693406     63.386812
     -4.019019     28.130650     28.130650     56.261300
     -4.009009     25.010794     25.010794     50.021587
     -3.998999     23.028288     23.028288     46.056576
     -3.988989     22.549792     22.549792     45.099585
     -3.978979     23.633486     23.633486     47.266973
     -3.968969     26.140116     26.140116     52.280232
     -3.958959     29.841294     29.841294     59.682588
     -3.948949     34.471062     34.471062     68.942124
     -3.938939     39.732327     39.732327     79.464654
     -3.928929     45.305558     45.305558     90.611117
     -3.918919     50.889862     50.889862    101.779723
     -3.908909     56.258628     56.258628    112.517256
     -3.898899     61.278926     61.278926    122.557853
     -3.888889     65.856412     65.856412    131.712823
     -3.878879     69.819287     69.819287    139.638573
     -3.868869     72.809333     72.809333    145.618665
     -3.858859     74.265543     74.265543    148.531086
     -3.848849     73.549103     73.549103    147.098206
     -3.838839     70.183056     70.183056    140.366112
     -3.828829     64.107268     64.107268    128.214536
     -3.818819     55.823587     55.823587    111.647174
     -3.808809     46.347378     46.347378     92.694756
     -3.798799     36.969796     36.969796     73.939593
     -3.788789     28.920893     28.920893     57.841786
     -3.778779     23.060648     23.060648     46.121297
     -3.768769     19.700197     19.700197     39.400394
     -3.758759     18.592839     18.592839     37.185678
     -3.748749     19.072263     19.072263     38.144525
     -3.738739     20.279278     20.279278     40.558556
     -3.728729     21.410465     21.410465     42.820929
     -3.718719     21.930486     21.930486     43.860971
     -3.708709     21.703141     21.703141     43.406282
     -3.698699     21.011308     21.011308     42.022615
     -3.688689     20.455843     20.455843     40.911686
     -3.678679     20.751350     20.751350     41.502699
     -3.668669     22.469962     22.469962     44.939924
     -3.658659     25.812238     25.812238     51.624475
     -3.648649     30.490000     30.490000     60.980000
     -3.638639     35.775722     35.775722     71.551444
     -3.628629     40.709655     40.709655     81.419310
     -3.618619     44.386157     44.386157     88.772315
     -3.608609     46.204430     46.204430     92.408859
     -3.598599     45.991341     45.991341     91.982682
     -3.588589     43.972535     43.972535     87.945071
     -3.578579     40.637722     40.637722     81.275443
     -3.568569     36.574658     36.574658     73.149316
     -3.558559     32.327766     32.327766     64.655533
     -3.548549     28.301563     28.301563     56.603125
     -3.538539     24.709547     24.709547     49.419095
     -3.528529     21.571417     21.571417     43.142835
     -3.518519     18.764522     18.764522     37.529044
     -3.508509     16.120875     16.120875     32.241751
     -3.498498     13.535225     13.535225     27.070449
     -3.488488     11.036965     11.036965     22.073929
     -3.478478      8.794417      8.794417     17.588835
     -3.468468      7.054410      7.054410     14.108820
     -3.458458      6.048554      6.048554     12.097108
     -3.448448      5.904266      5.904266     11.808533
     -3.438438      6.587803      6.587803     13.175605
     -3.428428      7.893366      7.893366     15.786731
     -3.418418      9.484287      9.484287     18.968574
     -3.408408     10.983853     10.983853     21.967705
     -3.398398     12.096688     12.096688     24.193376
     -3.388388     12.720790     12.720790     25.441579
     -3.378378     13.001824     13.001824     26.003648
     -3.368368     13.299037     13.299037     26.598074
     -3.358358     14.071055     14.071055     28.142110
     -3.348348     15.726227     15.726227     31.452453
     -3.338338     18.491752     18.491752     36.983503
     -3.328328     22.335179     22.335179     44.670359
     -3.318318     26.941797     26.941797     53.883593
     -3.308308     31.738504     31.738504     63.477007
     -3.298298     35.965276     35.965276     71.930553
     -3.288288     38.807470     38.807470     77.614941
     -3.278278     39.587479     39.587479     79.174957
     -3.268268     37.970069     37.970069     75.940137
     -3.258258     34.096223     34.096223     68.192446
     -3.248248     28.568594     28.568594     57.137187
     -3.238238     22.276893     22.276893     44.553787
     -3.228228     16.134316     16.134316     32.268632
     -3.218218     10.839217     10.839217     21.678433
     -3.208208      6.752567      6.752567     13.505134
     -3.198198      3.913390      3.913390      7.826780
     -3.188188      2.150013      2.150013      4.300026
     -3.178178      1.219497      1.219497      2.438994
     -3.168168      0.921936      0.921936      1.843872
     -3.158158      1.167194      1.167194      2.334388
     -3.148148      1.995007      1.995007      3.990014
     -3.138138      3.556274      3.556274      7.112547
     -3.128128      6.060182      6.060182     12.120363
     -3.118118      9.690697      9.690697     19.381394
     -3.108108     14.504399     14.504399     29.008799
     -3.098098     20.337196     20.337196     40.674392
     -3.088088     26.758783     26.758783     53.517565
     -3.078078     33.108080     33.108080     66.216161
     -3.068068     38.615885     38.615885     77.231770
     -3.058058     42.582542     42.582542     85.165083
     -3.048048     44.549456     44.549456     89.098911
     -3.038038     44.402527     44.402527     88.805055
     -3.028028     42.376061     42.376061     84.752122
     -3.018018     38.969829     38.969829     77.939658
     -3.008008     34.823306     34.823306     69.646612
     -2.997998     30.593532     30.593532     61.187063
     -2.987988     26.862688     26.862688     53.725376
     -2.977978     24.079332     24.079332     48.158665
     -2.967968     22.528909     22.528909     45.057817
     -2.957958     22.331595     22.331595     44.663189
     -2.947948     23.464131     23.464131     46.928263
     -2.937938     25.791042     25.791042     51.582083
     -2.927928     29.081982     29.081982     58.163963
     -2.917918     33.003127     33.003127     66.006254
     -2.907908     37.100802     37.100802     74.201604
     -2.897898     40.820237     40.820237     81.640474
     -2.887888     43.593532     43.593532     87.187063
     -2.877878     44.985933     44.985933     89.971866
     -2.867868     44.838408     44.838408     89.676816
     -2.857858     43.327159     43.327159     86.654319
     -2.847848     40.895057     40.895057     81.790114
     -2.837838     38.077233     38.077233     76.154465
     -2.827828     35.301783     35.301783     70.603566
     -2.817818     32.760900     32.760900     65.521799
     -2.807808     30.409542     30.409542     60.819085
     -2.797798     28.080468     28.080468     56.160937
     -2.787788     25.644268     25.644268     51.288537
     -2.777778     23.123695     23.123695     46.247390
     -2.767768     20.702574     20.702574     41.405149
     -2.757758     18.632910     18.632910     37.265820
     -2.747748     17.103247     17.103247     34.206493
     -2.737738     16.152340     16.152340     32.304680
     -2.727728     15.681611     15.681611     31.363222
     -2.717718     15.555374     15.555374     31.110747
     -2.707708     15.719275     15.719275     31.438549
     -2.697698     16.253098     16.253098     32.506197
     -2.687688     17.315651     17.315651     34.631303
     -2.677678     19.012021     19.012021     38.024042
     -2.667668     21.269787     21.269787     42.539575
     -2.657658     23.811491     23.811491     47.622982
     -2.647648     26.251832     26.251832     52.503663
     -2.637638     28.266561     28.266561     56.533122
     -2.627628     29.730955     29.730955     59.461911
     -2.617618     30.744725     30.744725     61.489449
     -2.607608     31.535252     31.535252     63.070503
     -2.597598     32.308519     32.308519     64.617038
     -2.587588     33.140952     33.140952     66.281904
     -2.577578     33.962087     33.962087     67.924173
     -2.567568     34.607487     34.607487     69.214974
     -2.557558     34.882802     34.882802     69.765604
     -2.547548     34.599730     34.599730     69.199460
     -2.537538     33.594969     33.594969     67.189938
     -2.527528     31.770367     31.770367     63.540734
     -2.517518     29.168757     29.168757     58.337514
     -2.507508     26.048721     26.048721     52.097441
     -2.497497     22.893141     22.893141     45.786282
     -2.487487     20.311138     20.311138     40.622276
     -2.477477     18.855484     18.855484     37.710969
     -2.467467     18.833449     18.833449     37.666899
     -2.457457     20.201219     20.201219     40.402437
     -2.447447     22.594800     22.594800     45.189600
     -2.437437     25.485925     25.485925     50.971850
     -2.427427     28.392599     28.392599     56.785198
     -2.417417     31.047690     31.047690     62.095380
     -2.407407     33.447370     33.447370     66.894740
     -2.397397     35.757157     35.757157     71.514314
     -2.387387     38.122178     38.122178     76.244356
     -2.377377     40.477757     40.477757     80.955513
     -2.367367     42.461823     42.461823     84.923646
     -2.357357     43.486813     43.486813     86.973626
     -2.347347     42.953446     42.953446     85.906892
     -2.337337     40.516720     40.516720     81.033440
     -2.327327     36.282814     36.282814     72.565628
     -2.317317     30.844196     30.844196     61.688391
     -2.307307     25.136211     25.136211     50.272422
     -2.297297     20.179731     20.179731     40.359461
     -2.287287     16.816212     16.816212     33.632424
     -2.277277     15.526725     15.526725     31.053450
     -2.267267     16.374696     16.374696     32.749392
     -2.257257     19.059465     19.059465     38.118930
     -2.247247     23.038289     23.038289     46.076578
     -2.237237     27.668926     27.668926     55.337851
     -2.227227     32.332226     32.332226     64.664453
     -2.217217     36.507373     36.507373     73.014747
     -2.207207     39.792423     39.792423     79.584845
     -2.197197     41.888262     41.888262     83.776524
     -2.187187     42.583261     42.583261     85.166523
     -2.177177     41.772154     41.772154     83.544307
     -2.167167     39.511146     39.511146     79.022293
     -2.157157     36.069861     36.069861     72.139722
     -2.147147     31.921944     31.921944     63.843889
     -2.137137     27.641995     27.641995     55.283990
     -2.127127     23.735844     23.735844     47.471689
     -2.117117     20.483412     20.483412     40.966823
     -2.107107     17.877556     17.877556     35.755112
     -2.097097     15.691110     15.691110     31.382220
     -2.087087     13.631267     13.631267     27.262535
     -2.077077     11.495059     11.495059     22.990117
     -2.067067      9.249487      9.249487     18.498975
     -2.057057      7.012588      7.012588     14.025175
     -2.047047      4.968122      4.968122      9.936243
     -2.037037      3.272283      3.272283      6.544567
     -2.027027      1.998112      1.998112      3.996223
     -2.017017      1.130448      1.130448      2.260895
     -2.007007      0.596167      0.596167      1.192334
     -1.996997      0.304817      0.304817      0.609635
     -1.986987      0.181496      0.181496      0.362992
     -1.976977      0.186156      0.186156      0.372313
     -1.966967      0.322010      0.322010      0.644020
     -1.956957      0.637021      0.637021      1.274043
     -1.946947      1.218704      1.218704      2.437408
     -1.936937      2.178246      2.178246      4.356492
     -1.926927      3.619936      3.619936      7.239872
     -1.916917      5.597973      5.597973     11.195945
     -1.906907      8.072738      8.072738     16.145476
     -1.896897     10.885868     10.885868     21.771736
     -1.886887     13.770987     13.770987     27.541975
     -1.876877     16.403573     16.403573     32.807145
     -1.866867     18.476186     18.476186     36.952372
     -1.856857     19.774690     19.774690     39.549379
     -1.846847     20.231827     20.231827     40.463654
     -1.836837     19.942576     19.942576     39.885153
     -1.826827     19.134493     19.134493     38.268985
     -1.816817     18.095507     18.095507     36.191013
     -1.806807     17.075854     17.075854     34.151707
     -1.796797     16.198503     16.198503     32.397006
     -1.786787     15.420564     15.420564     30.841127
     -1.776777     14.572086     14.572086     29.144173
     -1.766767     13.460196     13.460196     26.920393
     -1.756757     11.988619     11.988619     23.977238
     -1.746747     10.232743     10.232743     20.465487
     -1.736737      8.436300      8.436300     16.872601
     -1.726727      6.938461      6.938461     13.876922
     -1.716717      6.070459      6.070459     12.140918
     -1.706707      6.063390      6.063390     12.126781
     -1.696697      6.991269      6.991269     13.982539
     -1.686687      8.754407      8.754407     17.508813
     -1.676677     11.098815     11.098815     22.197631
     -1.666667     13.664840     13.664840     27.329679
     -1.656657     16.054784     16.054784     32.109568
     -1.646647     17.904060     17.904060     35.808119
     -1.636637     18.939727     18.939727     37.879454
     -1.626627     19.018229     19.018229     38.036457
