# EIG2DOS: Utility for SIESTA to obtain the electronic density of states
#  E. Artacho, Apr 1999, A. Garcia, Apr 2012
#  Nick R. Papior, Feb 2017
# ------------------------------------------
# Eigenvalues calculated from a non-polarized calculation
# Eigenvalues read from siesta.EIG
# Kpoint weights read from siesta.KP
# Using smearing parameter:   0.0500
# Using 1000 points in the energy range
# Selected bands: 1 to: 2981
# Emin, Emax in file for selected band(s):    -27.2882936    218.3767760
# Nbands, Nspin, Nk   =   2981     1     1
# E_F                 =    -4.2248 eV --> (shifted to ZERO)
# Broadening          =     0.0500 eV
#
#        E            N(up)  (=)   N(down)         Ntot
     -5.000000     31.762372     31.762372     63.524744
     -4.989990     36.357537     36.357537     72.715073
     -4.979980     40.678101     40.678101     81.356202
     -4.969970     44.029161     44.029161     88.058322
     -4.959960     45.802024     45.802024     91.604047
     -4.949950     45.673774     45.673774     91.347548
     -4.939940     43.723137     43.723137     87.446274
     -4.929930     40.427048     40.427048     80.854095
     -4.919920     36.557769     36.557769     73.115538
     -4.909910     33.030447     33.030447     66.060895
     -4.899900     30.741299     30.741299     61.482598
     -4.889890     30.406668     30.406668     60.813335
     -4.879880     32.399689     32.399689     64.799378
     -4.869870     36.604287     36.604287     73.208574
     -4.859860     42.346834     42.346834     84.693668
     -4.849850     48.479176     48.479176     96.958353
     -4.839840     53.641271     53.641271    107.282542
     -4.829830     56.641412     56.641412    113.282825
     -4.819820     56.812830     56.812830    113.625660
     -4.809810     54.195499     54.195499    108.390998
     -4.799800     49.467410     49.467410     98.934820
     -4.789790     43.668690     43.668690     87.337379
     -4.779780     37.853556     37.853556     75.707111
     -4.769770     32.817772     32.817772     65.635545
     -4.759760     28.985642     28.985642     57.971283
     -4.749750     26.449356     26.449356     52.898711
     -4.739740     25.089667     25.089667     50.179333
     -4.729730     24.695133     24.695133     49.390266
     -4.719720     25.026948     25.026948     50.053896
     -4.709710     25.821712     25.821712     51.643424
     -4.699700     26.764058     26.764058     53.528117
     -4.689690     27.480924     27.480924     54.961847
     -4.679680     27.599973     27.599973     55.199946
     -4.669670     26.875842     26.875842     53.751683
     -4.659660     25.337080     25.337080     50.674160
     -4.649650     23.375309     23.375309     46.750618
     -4.639640     21.709514     21.709514     43.419028
     -4.629630     21.208911     21.208911     42.417822
     -4.619620     22.619888     22.619888     45.239775
     -4.609610     26.286596     26.286596     52.573191
     -4.599600     31.966434     31.966434     63.932869
     -4.589590     38.820286     38.820286     77.640573
     -4.579580     45.606728     45.606728     91.213456
     -4.569570     51.037666     51.037666    102.075333
     -4.559560     54.181192     54.181192    108.362385
     -4.549550     54.760549     54.760549    109.521098
     -4.539540     53.224932     53.224932    106.449863
     -4.529530     50.556625     50.556625    101.113249
     -4.519520     47.890735     47.890735     95.781469
     -4.509510     46.103164     46.103164     92.206327
     -4.499499     45.530305     45.530305     91.060610
     -4.489489     45.918879     45.918879     91.837758
     -4.479479     46.600815     46.600815     93.201629
     -4.469469     46.796390     46.796390     93.592779
     -4.459459     45.909412     45.909412     91.818824
     -4.449449     43.703253     43.703253     87.406507
     -4.439439     40.316712     40.316712     80.633423
     -4.429429     36.155186     36.155186     72.310372
     -4.419419     31.737362     31.737362     63.474723
     -4.409409     27.572351     27.572351     55.144702
     -4.399399     24.097691     24.097691     48.195382
     -4.389389     21.658142     21.658142     43.316285
     -4.379379     20.483871     20.483871     40.967742
     -4.369369     20.646585     20.646585     41.293170
     -4.359359     22.013601     22.013601     44.027201
     -4.349349     24.246051     24.246051     48.492103
     -4.339339     26.874442     26.874442     53.748883
     -4.329329     29.440082     29.440082     58.880165
     -4.319319     31.646727     31.646727     63.293454
     -4.309309     33.453271     33.453271     66.906541
     -4.299299     35.062464     35.062464     70.124928
     -4.289289     36.804964     36.804964     73.609927
     -4.279279     38.959264     38.959264     77.918528
     -4.269269     41.572984     41.572984     83.145969
     -4.259259     44.357301     44.357301     88.714601
     -4.249249     46.712035     46.712035     93.424069
     -4.239239     47.898489     47.898489     95.796977
     -4.229229     47.313473     47.313473     94.626946
     -4.219219     44.756249     44.756249     89.512499
     -4.209209     40.561255     40.561255     81.122511
     -4.199199     35.519633     35.519633     71.039266
     -4.189189     30.614190     30.614190     61.228380
     -4.179179     26.687841     26.687841     53.375681
     -4.169169     24.196231     24.196231     48.392463
     -4.159159     23.144430     23.144430     46.288859
     -4.149149     23.210243     23.210243     46.420485
     -4.139139     23.970650     23.970650     47.941300
     -4.129129     25.113459     25.113459     50.226919
     -4.119119     26.538554     26.538554     53.077108
     -4.109109     28.311731     28.311731     56.623461
     -4.099099     30.503291     30.503291     61.006581
     -4.089089     33.000259     33.000259     66.000517
     -4.079079     35.402915     35.402915     70.805831
     -4.069069     37.084927     37.084927     74.169854
     -4.059059     37.414608     37.414608     74.829216
     -4.049049     36.040350     36.040350     72.080700
     -4.039039     33.094165     33.094165     66.188330
     -4.029029     29.201801     29.201801     58.403601
     -4.019019     25.290010     25.290010     50.580019
     -4.009009     22.287797     22.287797     44.575593
     -3.998999     20.863021     20.863021     41.726042
     -3.988989     21.297518     21.297518     42.595036
     -3.978979     23.516783     23.516783     47.033566
     -3.968969     27.213869     27.213869     54.427738
     -3.958959     31.983998     31.983998     63.967995
     -3.948949     37.417006     37.417006     74.834012
     -3.938939     43.144385     43.144385     86.288769
     -3.928929     48.865653     48.865653     97.731306
     -3.918919     54.369284     54.369284    108.738569
     -3.908909     59.534987     59.534987    119.069974
     -3.898899     64.291172     64.291172    128.582345
     -3.888889     68.523004     68.523004    137.046009
     -3.878879     71.969076     71.969076    143.938153
     -3.868869     74.173921     74.173921    148.347842
     -3.858859     74.551526     74.551526    149.103051
     -3.848849     72.562710     72.562710    145.125421
     -3.838839     67.945156     67.945156    135.890313
     -3.828829     60.896527     60.896527    121.793053
     -3.818819     52.121594     52.121594    104.243189
     -3.808809     42.709534     42.709534     85.419068
     -3.798799     33.878975     33.878975     67.757949
     -3.788789     26.680344     26.680344     53.360689
     -3.778779     21.754886     21.754886     43.509771
     -3.768769     19.219475     19.219475     38.438950
     -3.758759     18.697043     18.697043     37.394087
     -3.748749     19.468030     19.468030     38.936060
     -3.738739     20.692234     20.692234     41.384469
     -3.728729     21.642657     21.642657     43.285314
     -3.718719     21.896968     21.896968     43.793936
     -3.708709     21.442772     21.442772     42.885545
     -3.698699     20.668736     20.668736     41.337472
     -3.688689     20.236389     20.236389     40.472778
     -3.678679     20.857554     20.857554     41.715109
     -3.668669     23.035578     23.035578     46.071157
     -3.658659     26.853179     26.853179     53.706358
     -3.648649     31.889102     31.889102     63.778205
     -3.638639     37.308105     37.308105     74.616210
     -3.628629     42.100792     42.100792     84.201584
     -3.618619     45.382254     45.382254     90.764508
     -3.608609     46.631251     46.631251     93.262502
     -3.598599     45.785084     45.785084     91.570168
     -3.588589     43.179517     43.179517     86.359033
     -3.578579     39.390325     39.390325     78.780651
     -3.568569     35.054540     35.054540     70.109080
     -3.558559     30.725638     30.725638     61.451275
     -3.548549     26.780777     26.780777     53.561554
     -3.538539     23.380287     23.380287     46.760574
     -3.528529     20.481332     20.481332     40.962664
     -3.518519     17.907482     17.907482     35.814964
     -3.508509     15.458749     15.458749     30.917497
     -3.498498     13.022514     13.022514     26.045028
     -3.488488     10.638383     10.638383     21.276766
     -3.478478      8.490779      8.490779     16.981559
     -3.468468      6.838719      6.838719     13.677438
     -3.458458      5.917896      5.917896     11.835791
     -3.448448      5.852972      5.852972     11.705944
     -3.438438      6.605046      6.605046     13.210092
     -3.428428      7.966247      7.966247     15.932495
     -3.418418      9.606576      9.606576     19.213153
     -3.408408     11.170247     11.170247     22.340494
     -3.398398     12.401781     12.401781     24.803562
     -3.388388     13.260485     13.260485     26.520970
     -3.378378     13.972763     13.972763     27.945527
     -3.368368     14.988685     14.988685     29.977370
     -3.358358     16.847569     16.847569     33.695137
     -3.348348     19.995073     19.995073     39.990145
     -3.338338     24.609971     24.609971     49.219942
     -3.328328     30.489250     30.489250     60.978501
     -3.318318     37.020261     37.020261     74.040522
     -3.308308     43.253717     43.253717     86.507433
     -3.298298     48.079997     48.079997     96.159994
     -3.288288     50.488610     50.488610    100.977220
     -3.278278     49.850837     49.850837     99.701674
     -3.268268     46.129041     46.129041     92.258081
     -3.258258     39.919286     39.919286     79.838571
     -3.248248     32.294092     32.294092     64.588184
     -3.238238     24.502616     24.502616     49.005232
     -3.228228     17.649671     17.649671     35.299341
     -3.218218     12.471140     12.471140     24.942281
     -3.208208      9.259188      9.259188     18.518376
     -3.198198      7.914981      7.914981     15.829963
     -3.188188      8.067872      8.067872     16.135744
     -3.178178      9.209638      9.209638     18.419275
     -3.168168     10.823791     10.823791     21.647581
     -3.158158     12.506972     12.506972     25.013943
     -3.148148     14.068459     14.068459     28.136918
     -3.138138     15.572297     15.572297     31.144594
     -3.128128     17.284952     17.284952     34.569905
     -3.118118     19.525085     19.525085     39.050171
     -3.108108     22.466209     22.466209     44.932418
     -3.098098     25.982269     25.982269     51.964539
     -3.088088     29.619546     29.619546     59.239093
     -3.078078     32.722102     32.722102     65.444204
     -3.068068     34.660068     34.660068     69.320135
     -3.058058     35.054289     35.054289     70.108579
     -3.048048     33.891216     33.891216     67.782432
     -3.038038     31.480979     31.480979     62.961959
     -3.028028     28.296219     28.296219     56.592439
     -3.018018     24.788888     24.788888     49.577777
     -3.008008     21.281619     21.281619     42.563238
     -2.997998     17.973413     17.973413     35.946826
     -2.987988     15.026925     15.026925     30.053850
     -2.977978     12.662986     12.662986     25.325972
     -2.967968     11.196701     11.196701     22.393402
     -2.957958     10.991771     10.991771     21.983541
     -2.947948     12.353055     12.353055     24.706110
     -2.937938     15.400493     15.400493     30.800986
     -2.927928     19.970205     19.970205     39.940411
     -2.917918     25.580886     25.580886     51.161772
     -2.907908     31.489830     31.489830     62.979661
     -2.897898     36.839744     36.839744     73.679488
     -2.887888     40.864039     40.864039     81.728078
     -2.877878     43.085940     43.085940     86.171880
     -2.867868     43.435253     43.435253     86.870505
     -2.857858     42.230442     42.230442     84.460885
     -2.847848     40.028091     40.028091     80.056181
     -2.837838     37.402176     37.402176     74.804353
     -2.827828     34.749775     34.749775     69.499550
     -2.817818     32.206783     32.206783     64.413567
     -2.807808     29.701349     29.701349     59.402699
     -2.797798     27.102512     27.102512     54.205024
     -2.787788     24.375148     24.375148     48.750296
     -2.777778     21.655196     21.655196     43.310392
     -2.767768     19.209183     19.209183     38.418366
     -2.757758     17.310491     17.310491     34.620982
     -2.747748     16.112073     16.112073     32.224146
     -2.737738     15.593980     15.593980     31.187960
     -2.727728     15.614660     15.614660     31.229321
     -2.717718     16.027264     16.027264     32.054528
     -2.707708     16.778929     16.778929     33.557857
     -2.697698     17.921860     17.921860     35.843720
     -2.687688     19.525854     19.525854     39.051708
     -2.677678     21.553664     21.553664     43.107328
     -2.667668     23.793254     23.793254     47.586508
     -2.657658     25.907847     25.907847     51.815694
     -2.647648     27.584876     27.584876     55.169753
     -2.637638     28.693191     28.693191     57.386382
     -2.627628     29.346748     29.346748     58.693496
     -2.617618     29.832689     29.832689     59.665377
     -2.607608     30.449786     30.449786     60.899571
     -2.597598     31.355961     31.355961     62.711921
     -2.587588     32.505286     32.505286     65.010572
     -2.577578     33.685872     33.685872     67.371744
     -2.567568     34.607888     34.607888     69.215776
     -2.557558     34.981285     34.981285     69.962570
     -2.547548     34.562193     34.562193     69.124385
     -2.537538     33.190621     33.190621     66.381243
     -2.527528     30.847176     30.847176     61.694353
     -2.517518     27.720890     27.720890     55.441779
     -2.507508     24.241225     24.241225     48.482450
     -2.497497     21.024719     21.024719     42.049437
     -2.487487     18.727643     18.727643     37.455286
     -2.477477     17.851896     17.851896     35.703792
     -2.467467     18.584297     18.584297     37.168595
     -2.457457     20.740727     20.740727     41.481454
     -2.447447     23.842754     23.842754     47.685507
     -2.437437     27.297538     27.297538     54.595076
     -2.427427     30.606057     30.606057     61.212113
     -2.417417     33.509645     33.509645     67.019289
     -2.407407     36.009567     36.009567     72.019134
     -2.397397     38.251764     38.251764     76.503528
     -2.387387     40.334873     40.334873     80.669746
     -2.377377     42.142048     42.142048     84.284097
     -2.367367     43.292027     43.292027     86.584055
     -2.357357     43.250069     43.250069     86.500137
     -2.347347     41.558376     41.558376     83.116751
     -2.337337     38.079601     38.079601     76.159203
     -2.327327     33.134130     33.134130     66.268260
     -2.317317     27.462638     27.462638     54.925276
     -2.307307     22.031755     22.031755     44.063509
     -2.297297     17.771601     17.771601     35.543202
     -2.287287     15.351133     15.351133     30.702266
     -2.277277     15.060169     15.060169     30.120337
     -2.267267     16.808313     16.808313     33.616626
     -2.257257     20.207156     20.207156     40.414311
     -2.247247     24.688286     24.688286     49.376572
     -2.237237     29.618274     29.618274     59.236548
     -2.227227     34.387679     34.387679     68.775359
     -2.217217     38.465972     38.465972     76.931945
     -2.207207     41.427336     41.427336     82.854671
     -2.197197     42.963447     42.963447     85.926894
     -2.187187     42.903130     42.903130     85.806261
     -2.177177     41.248221     41.248221     82.496442
     -2.167167     38.210998     38.210998     76.421997
     -2.157157     34.216201     34.216201     68.432401
     -2.147147     29.831840     29.831840     59.663680
     -2.137137     25.627522     25.627522     51.255044
     -2.127127     22.009260     22.009260     44.018520
     -2.117117     19.109171     19.109171     38.218343
     -2.107107     16.789263     16.789263     33.578526
     -2.097097     14.757982     14.757982     29.515963
     -2.087087     12.735823     12.735823     25.471645
     -2.077077     10.584088     10.584088     21.168176
     -2.067067      8.341060      8.341060     16.682120
     -2.057057      6.167715      6.167715     12.335430
     -2.047047      4.250971      4.250971      8.501941
     -2.037037      2.721522      2.721522      5.443043
     -2.027027      1.619671      1.619671      3.239342
     -2.017017      0.909267      0.909267      1.818534
     -2.007007      0.518634      0.518634      1.037268
     -1.996997      0.384982      0.384982      0.769964
     -1.986987      0.487983      0.487983      0.975966
     -1.976977      0.867761      0.867761      1.735523
     -1.966967      1.625930      1.625930      3.251861
     -1.956957      2.906772      2.906772      5.813544
     -1.946947      4.855178      4.855178      9.710355
     -1.936937      7.554219      7.554219     15.108437
     -1.926927     10.958202     10.958202     21.916404
     -1.916917     14.849403     14.849403     29.698807
     -1.906907     18.846957     18.846957     37.693914
     -1.896897     22.478206     22.478206     44.956413
     -1.886887     25.292725     25.292725     50.585449
     -1.876877     26.975488     26.975488     53.950976
     -1.866867     27.415683     27.415683     54.831367
     -1.856857     26.712338     26.712338     53.424675
     -1.846847     25.129165     25.129165     50.258330
     -1.836837     23.026028     23.026028     46.052056
     -1.826827     20.786485     20.786485     41.572970
     -1.816817     18.745195     18.745195     37.490390
     -1.806807     17.116371     17.116371     34.232743
     -1.796797     15.939254     15.939254     31.878508
     -1.786787     15.070441     15.070441     30.140882
     -1.776777     14.243733     14.243733     28.487465
     -1.766767     13.183920     13.183920     26.367841
     -1.756757     11.725420     11.725420     23.450841
     -1.746747      9.878921      9.878921     19.757842
     -1.736737      7.817926      7.817926     15.635852
     -1.726727      5.802335      5.802335     11.604670
     -1.716717      4.086664      4.086664      8.173328
     -1.706707      2.858294      2.858294      5.716587
     -1.696697      2.222796      2.222796      4.445592
     -1.686687      2.221358      2.221358      4.442716
     -1.676677      2.849658      2.849658      5.699317
     -1.666667      4.054892      4.054892      8.109783
     -1.656657      5.710536      5.710536     11.421072
     -1.646647      7.592015      7.592015     15.184029
     -1.636637      9.385709      9.385709     18.771418
     -1.626627     10.751036     10.751036     21.502072
