# EIG2DOS: Utility for SIESTA to obtain the electronic density of states
#  E. Artacho, Apr 1999, A. Garcia, Apr 2012
#  Nick R. Papior, Feb 2017
# ------------------------------------------
# Eigenvalues calculated from a non-polarized calculation
# Eigenvalues read from siesta.EIG
# Kpoint weights read from siesta.KP
# Using smearing parameter:   0.0500
# Using 1000 points in the energy range
# Selected bands: 1 to: 2981
# Emin, Emax in file for selected band(s):    -27.1460823    218.3487370
# Nbands, Nspin, Nk   =   2981     1     1
# E_F                 =    -4.2568 eV --> (shifted to ZERO)
# Broadening          =     0.0500 eV
#
#        E            N(up)  (=)   N(down)         Ntot
     -5.000000     35.550799     35.550799     71.101597
     -4.989990     38.850356     38.850356     77.700712
     -4.979980     41.436278     41.436278     82.872557
     -4.969970     42.918382     42.918382     85.836763
     -4.959960     43.069242     43.069242     86.138483
     -4.949950     41.882424     41.882424     83.764849
     -4.939940     39.584099     39.584099     79.168197
     -4.929930     36.604829     36.604829     73.209658
     -4.919920     33.530369     33.530369     67.060738
     -4.909910     31.042729     31.042729     62.085458
     -4.899900     29.841694     29.841694     59.683387
     -4.889890     30.522591     30.522591     61.045182
     -4.879880     33.401462     33.401462     66.802924
     -4.869870     38.327590     38.327590     76.655180
     -4.859860     44.576551     44.576551     89.153103
     -4.849850     50.925532     50.925532    101.851064
     -4.839840     55.946780     55.946780    111.893561
     -4.829830     58.438189     58.438189    116.876378
     -4.819820     57.814207     57.814207    115.628415
     -4.809810     54.277406     54.277406    108.554812
     -4.799800     48.694694     48.694694     97.389389
     -4.789790     42.251054     42.251054     84.502108
     -4.779780     36.053696     36.053696     72.107392
     -4.769770     30.854060     30.854060     61.708119
     -4.759760     26.963137     26.963137     53.926274
     -4.749750     24.328876     24.328876     48.657752
     -4.739740     22.686850     22.686850     45.373700
     -4.729730     21.701334     21.701334     43.402668
     -4.719720     21.054697     21.054697     42.109394
     -4.709710     20.483331     20.483331     40.966661
     -4.699700     19.782016     19.782016     39.564032
     -4.689690     18.805904     18.805904     37.611808
     -4.679680     17.492697     17.492697     34.985394
     -4.669670     15.908609     15.908609     31.817218
     -4.659660     14.297447     14.297447     28.594895
     -4.649650     13.096623     13.096623     26.193246
     -4.639640     12.887827     12.887827     25.775655
     -4.629630     14.271950     14.271950     28.543901
     -4.619620     17.687579     17.687579     35.375158
     -4.609610     23.220990     23.220990     46.441981
     -4.599600     30.476593     30.476593     60.953187
     -4.589590     38.579564     38.579564     77.159127
     -4.579580     46.351893     46.351893     92.703787
     -4.569570     52.635130     52.635130    105.270260
     -4.559560     56.652488     56.652488    113.304975
     -4.549550     58.258560     58.258560    116.517121
     -4.539540     57.956511     57.956511    115.913021
     -4.529530     56.665689     56.665689    113.331379
     -4.519520     55.342557     55.342557    110.685114
     -4.509510     54.624774     54.624774    109.249547
     -4.499499     54.645088     54.645088    109.290176
     -4.489489     55.067369     55.067369    110.134738
     -4.479479     55.290822     55.290822    110.581644
     -4.469469     54.707749     54.707749    109.415498
     -4.459459     52.906516     52.906516    105.813032
     -4.449449     49.764769     49.764769     99.529538
     -4.439439     45.438827     45.438827     90.877654
     -4.429429     40.292333     40.292333     80.584667
     -4.419419     34.811332     34.811332     69.622663
     -4.409409     29.532981     29.532981     59.065963
     -4.399399     24.988224     24.988224     49.976447
     -4.389389     21.642002     21.642002     43.284003
     -4.379379     19.818747     19.818747     39.637494
     -4.369369     19.623489     19.623489     39.246979
     -4.359359     20.893474     20.893474     41.786949
     -4.349349     23.219850     23.219850     46.439699
     -4.339339     26.053761     26.053761     52.107522
     -4.329329     28.868042     28.868042     57.736083
     -4.319319     31.312046     31.312046     62.624091
     -4.309309     33.295979     33.295979     66.591958
     -4.299299     34.973006     34.973006     69.946013
     -4.289289     36.631414     36.631414     73.262828
     -4.279279     38.540174     38.540174     77.080347
     -4.269269     40.800057     40.800057     81.600114
     -4.259259     43.247347     43.247347     86.494693
     -4.249249     45.448138     45.448138     90.896277
     -4.239239     46.804575     46.804575     93.609151
     -4.229229     46.758346     46.758346     93.516692
     -4.219219     45.024498     45.024498     90.048997
     -4.209209     41.750383     41.750383     83.500766
     -4.199199     37.508961     37.508961     75.017922
     -4.189189     33.111473     33.111473     66.222945
     -4.179179     29.321691     29.321691     58.643382
     -4.169169     26.609251     26.609251     53.218503
     -4.159159     25.055524     25.055524     50.111048
     -4.149149     24.439564     24.439564     48.879128
     -4.139139     24.439296     24.439296     48.878591
     -4.129129     24.834457     24.834457     49.668915
     -4.119119     25.608744     25.608744     51.217488
     -4.109109     26.903799     26.903799     53.807598
     -4.099099     28.850599     28.850599     57.701199
     -4.089089     31.367971     31.367971     62.735942
     -4.079079     34.046456     34.046456     68.092912
     -4.069069     36.206095     36.206095     72.412191
     -4.059059     37.129910     37.129910     74.259819
     -4.049049     36.371285     36.371285     72.742571
     -4.039039     33.977737     33.977737     67.955473
     -4.029029     30.509499     30.509499     61.018998
     -4.019019     26.843119     26.843119     53.686238
     -4.009009     23.866852     23.866852     47.733703
     -3.998999     22.221375     22.221375     44.442751
     -3.988989     22.191796     22.191796     44.383591
     -3.978979     23.755923     23.755923     47.511846
     -3.968969     26.711022     26.711022     53.422044
     -3.958959     30.785783     30.785783     61.571566
     -3.948949     35.691766     35.691766     71.383532
     -3.938939     41.131359     41.131359     82.262718
     -3.928929     46.807057     46.807057     93.614114
     -3.918919     52.454604     52.454604    104.909209
     -3.908909     57.878204     57.878204    115.756408
     -3.898899     62.943604     62.943604    125.887207
     -3.888889     67.507141     67.507141    135.014283
     -3.878879     71.310371     71.310371    142.620741
     -3.868869     73.911115     73.911115    147.822231
     -3.858859     74.719829     74.719829    149.439658
     -3.848849     73.160796     73.160796    146.321593
     -3.838839     68.907436     68.907436    137.814871
     -3.828829     62.089800     62.089800    124.179600
     -3.818819     53.371295     53.371295    106.742590
     -3.808809     43.844094     43.844094     87.688188
     -3.798799     34.772003     34.772003     69.544006
     -3.788789     27.273843     27.273843     54.547686
     -3.778779     22.058558     22.058558     44.117116
     -3.768769     19.292592     19.292592     38.585184
     -3.758759     18.624019     18.624019     37.248037
     -3.748749     19.336569     19.336569     38.673137
     -3.738739     20.577738     20.577738     41.155476
     -3.728729     21.598701     21.598701     43.197402
     -3.718719     21.950461     21.950461     43.900923
     -3.708709     21.592851     21.592851     43.185702
     -3.698699     20.889009     20.889009     41.778018
     -3.688689     20.480309     20.480309     40.960617
     -3.678679     21.066729     21.066729     42.133458
     -3.668669     23.150927     23.150927     46.301855
     -3.658659     26.828470     26.828470     53.656939
     -3.648649     31.704971     31.704971     63.409942
     -3.638639     36.982487     36.982487     73.964973
     -3.628629     41.690516     41.690516     83.381033
     -3.618619     44.972279     44.972279     89.944558
     -3.608609     46.312850     46.312850     92.625699
     -3.598599     45.629917     45.629917     91.259834
     -3.588589     43.219433     43.219433     86.438866
     -3.578579     39.610750     39.610750     79.221501
     -3.568569     35.403293     35.403293     70.806585
     -3.558559     31.132330     31.132330     62.264661
     -3.548549     27.178192     27.178192     54.356384
     -3.538539     23.719911     23.719911     47.439822
     -3.528529     20.739401     20.739401     41.478802
     -3.518519     18.082596     18.082596     36.165193
     -3.508509     15.564935     15.564935     31.129870
     -3.498498     13.081746     13.081746     26.163492
     -3.488488     10.674907     10.674907     21.349814
     -3.478478      8.527578      8.527578     17.055157
     -3.468468      6.895087      6.895087     13.790174
     -3.458458      6.006818      6.006818     12.013635
     -3.448448      5.977620      5.977620     11.955239
     -3.438438      6.754866      6.754866     13.509732
     -3.428428      8.114018      8.114018     16.228037
     -3.418418      9.707545      9.707545     19.415090
     -3.408408     11.162647     11.162647     22.325294
     -3.398398     12.205539     12.205539     24.411077
     -3.388388     12.769894     12.769894     25.539788
     -3.378378     13.041494     13.041494     26.082988
     -3.368368     13.412074     13.412074     26.824148
     -3.358358     14.355112     14.355112     28.710223
     -3.348348     16.270352     16.270352     32.540705
     -3.338338     19.350504     19.350504     38.701008
     -3.328328     23.502727     23.502727     47.005454
     -3.318318     28.330872     28.330872     56.661744
     -3.308308     33.174448     33.174448     66.348896
     -3.298298     37.207840     37.207840     74.415680
     -3.288288     39.605650     39.605650     79.211299
     -3.278278     39.755566     39.755566     79.511131
     -3.268268     37.456545     37.456545     74.913090
     -3.258258     33.015129     33.015129     66.030259
     -3.248248     27.180772     27.180772     54.361544
     -3.238238     20.935773     20.935773     41.871546
     -3.228228     15.228403     15.228403     30.456806
     -3.218218     10.758044     10.758044     21.516088
     -3.208208      7.878267      7.878267     15.756534
     -3.198198      6.614415      6.614415     13.228829
     -3.188188      6.746380      6.746380     13.492760
     -3.178178      7.907854      7.907854     15.815708
     -3.168168      9.683622      9.683622     19.367244
     -3.158158     11.710413     11.710413     23.420826
     -3.148148     13.780749     13.780749     27.561497
     -3.138138     15.920242     15.920242     31.840483
     -3.128128     18.387140     18.387140     36.774279
     -3.118118     21.557465     21.557465     43.114930
     -3.108108     25.713100     25.713100     51.426199
     -3.098098     30.815448     30.815448     61.630897
     -3.088088     36.380576     36.380576     72.761151
     -3.078078     41.542564     41.542564     83.085128
     -3.068068     45.305275     45.305275     90.610551
     -3.058058     46.881843     46.881843     93.763687
     -3.048048     45.965886     45.965886     91.931772
     -3.038038     42.808038     42.808038     85.616075
     -3.028028     38.074287     38.074287     76.148574
     -3.018018     32.577448     32.577448     65.154896
     -3.008008     27.028078     27.028078     54.056156
     -2.997998     21.915804     21.915804     43.831609
     -2.987988     17.538468     17.538468     35.076936
     -2.977978     14.111763     14.111763     28.223527
     -2.967968     11.865453     11.865453     23.730906
     -2.957958     11.064260     11.064260     22.128519
     -2.947948     11.946153     11.946153     23.892307
     -2.937938     14.612151     14.612151     29.224301
     -2.927928     18.917903     18.917903     37.835806
     -2.917918     24.415421     24.415421     48.830843
     -2.907908     30.380820     30.380820     60.761639
     -2.897898     35.940302     35.940302     71.880605
     -2.887888     40.270723     40.270723     80.541446
     -2.877878     42.812928     42.812928     85.625855
     -2.867868     43.416638     43.416638     86.833277
     -2.857858     42.352559     42.352559     84.705118
     -2.847848     40.179975     40.179975     80.359951
     -2.837838     37.523137     37.523137     75.046274
     -2.827828     34.853209     34.853209     69.706419
     -2.817818     32.369523     32.369523     64.739047
     -2.807808     30.023536     30.023536     60.047073
     -2.797798     27.656828     27.656828     55.313656
     -2.787788     25.168951     25.168951     50.337903
     -2.777778     22.621968     22.621968     45.243937
     -2.767768     20.230439     20.230439     40.460878
     -2.757758     18.254374     18.254374     36.508747
     -2.747748     16.868513     16.868513     33.737027
     -2.737738     16.091560     16.091560     32.183119
     -2.727728     15.817331     15.817331     31.634663
     -2.717718     15.921605     15.921605     31.843210
     -2.707708     16.366982     16.366982     32.733965
     -2.697698     17.228294     17.228294     34.456588
     -2.687688     18.615165     18.615165     37.230330
     -2.677678     20.542115     20.542115     41.084230
     -2.667668     22.839313     22.839313     45.678625
     -2.657658     25.176411     25.176411     50.352821
     -2.647648     27.197883     27.197883     54.395766
     -2.637638     28.690451     28.690451     57.380902
     -2.627628     29.677058     29.677058     59.354116
     -2.617618     30.378345     30.378345     60.756689
     -2.607608     31.069563     31.069563     62.139126
     -2.597598     31.925239     31.925239     63.850478
     -2.587588     32.940059     32.940059     65.880118
     -2.577578     33.950927     33.950927     67.901855
     -2.567568     34.716503     34.716503     69.433005
     -2.557558     34.990544     34.990544     69.981087
     -2.547548     34.561164     34.561164     69.122327
     -2.537538     33.277501     33.277501     66.555001
     -2.527528     31.098467     31.098467     62.196934
     -2.517518     28.164049     28.164049     56.328098
     -2.507508     24.843415     24.843415     49.686830
     -2.497497     21.702328     21.702328     43.404657
     -2.487487     19.370231     19.370231     38.740462
     -2.477477     18.348356     18.348356     36.696711
     -2.467467     18.841540     18.841540     37.683080
     -2.457457     20.692396     20.692396     41.384792
     -2.447447     23.451330     23.451330     46.902660
     -2.437437     26.554504     26.554504     53.109008
     -2.427427     29.532927     29.532927     59.065855
     -2.417417     32.160610     32.160610     64.321220
     -2.407407     34.475389     34.475389     68.950778
     -2.397397     36.663159     36.663159     73.326318
     -2.387387     38.860716     38.860716     77.721433
     -2.377377     40.975167     40.975167     81.950333
     -2.367367     42.617149     42.617149     85.234297
     -2.357357     43.197044     43.197044     86.394089
     -2.347347     42.155622     42.155622     84.311244
     -2.337337     39.229339     39.229339     78.458678
     -2.327327     34.625376     34.625376     69.250752
     -2.317317     29.021209     29.021209     58.042418
     -2.307307     23.388806     23.388806     46.777612
     -2.297297     18.724620     18.724620     37.449240
     -2.287287     15.797567     15.797567     31.595135
     -2.277277     14.998264     14.998264     29.996528
     -2.267267     16.313000     16.313000     32.626000
     -2.257257     19.395284     19.395284     38.790568
     -2.247247     23.687174     23.687174     47.374348
     -2.237237     28.546875     28.546875     57.093749
     -2.227227     33.352735     33.352735     66.705470
     -2.217217     37.567988     37.567988     75.135976
     -2.207207     40.765960     40.765960     81.531920
     -2.197197     42.632185     42.632185     85.264370
     -2.187187     42.970260     42.970260     85.940520
     -2.177177     41.730990     41.730990     83.461980
     -2.167167     39.057467     39.057467     78.114934
     -2.157157     35.308255     35.308255     70.616509
     -2.147147     31.013392     31.013392     62.026785
     -2.137137     26.748554     26.748554     53.497109
     -2.127127     22.967043     22.967043     45.934086
     -2.117117     19.868686     19.868686     39.737372
     -2.107107     17.375598     17.375598     34.751195
     -2.097097     15.227804     15.227804     30.455608
     -2.087087     13.144310     13.144310     26.288620
     -2.077077     10.962966     10.962966     21.925932
     -2.067067      8.694467      8.694467     17.388935
     -2.057057      6.482127      6.482127     12.964253
     -2.047047      4.509607      4.509607      9.019215
     -2.037037      2.914451      2.914451      5.828903
     -2.027027      1.745527      1.745527      3.491054
     -2.017017      0.968966      0.968966      1.937931
     -2.007007      0.503133      0.503133      1.006265
     -1.996997      0.258336      0.258336      0.516673
     -1.986987      0.166164      0.166164      0.332329
     -1.976977      0.195412      0.195412      0.390823
     -1.966967      0.358395      0.358395      0.716789
     -1.956957      0.711212      0.711212      1.422424
     -1.946947      1.347151      1.347151      2.694302
     -1.936937      2.378698      2.378698      4.757397
     -1.926927      3.904669      3.904669      7.809338
     -1.916917      5.966159      5.966159     11.932318
     -1.906907      8.505196      8.505196     17.010391
     -1.896897     11.346049     11.346049     22.692099
     -1.886887     14.214781     14.214781     28.429562
     -1.876877     16.797907     16.797907     33.595814
     -1.866867     18.824124     18.824124     37.648249
     -1.856857     20.143569     20.143569     40.287139
     -1.846847     20.779878     20.779878     41.559756
     -1.836837     20.936285     20.936285     41.872570
     -1.826827     20.943908     20.943908     41.887816
     -1.816817     21.152204     21.152204     42.304408
     -1.806807     21.785056     21.785056     43.570112
     -1.796797     22.815878     22.815878     45.631756
     -1.786787     23.928899     23.928899     47.857797
     -1.776777     24.608290     24.608290     49.216579
     -1.766767     24.334057     24.334057     48.668114
     -1.756757     22.799372     22.799372     45.598744
     -1.746747     20.044108     20.044108     40.088215
     -1.736737     16.442307     16.442307     32.884614
     -1.726727     12.560659     12.560659     25.121317
     -1.716717      8.968745      8.968745     17.937489
     -1.706707      6.091954      6.091954     12.183909
     -1.696697      4.156290      4.156290      8.312579
     -1.686687      3.215176      3.215176      6.430353
     -1.676677      3.209776      3.209776      6.419553
     -1.666667      4.013352      4.013352      8.026705
     -1.656657      5.438872      5.438872     10.877743
     -1.646647      7.224909      7.224909     14.449818
     -1.636637      9.035918      9.035918     18.071835
     -1.626627     10.507338     10.507338     21.014676
