# EIG2DOS: Utility for SIESTA to obtain the electronic density of states
#  E. Artacho, Apr 1999, A. Garcia, Apr 2012
#  Nick R. Papior, Feb 2017
# ------------------------------------------
# Eigenvalues calculated from a non-polarized calculation
# Eigenvalues read from siesta.EIG
# Kpoint weights read from siesta.KP
# Using smearing parameter:   0.0500
# Using 1000 points in the energy range
# Selected bands: 1 to: 2981
# Emin, Emax in file for selected band(s):    -27.2746170    218.3760170
# Nbands, Nspin, Nk   =   2981     1     1
# E_F                 =    -4.2215 eV --> (shifted to ZERO)
# Broadening          =     0.0500 eV
#
#        E            N(up)  (=)   N(down)         Ntot
     -5.000000     35.622483     35.622483     71.244967
     -4.989990     39.887056     39.887056     79.774112
     -4.979980     43.262903     43.262903     86.525806
     -4.969970     45.181038     45.181038     90.362077
     -4.959960     45.320792     45.320792     90.641584
     -4.949950     43.715313     43.715313     87.430627
     -4.939940     40.749140     40.749140     81.498280
     -4.929930     37.070088     37.070088     74.140175
     -4.919920     33.466624     33.466624     66.933248
     -4.909910     30.749299     30.749299     61.498597
     -4.899900     29.638144     29.638144     59.276287
     -4.889890     30.634146     30.634146     61.268291
     -4.879880     33.869209     33.869209     67.738418
     -4.869870     38.977968     38.977968     77.955936
     -4.859860     45.074841     45.074841     90.149682
     -4.849850     50.906090     50.906090    101.812180
     -4.839840     55.170417     55.170417    110.340833
     -4.829830     56.903607     56.903607    113.807213
     -4.819820     55.768409     55.768409    111.536819
     -4.809810     52.122545     52.122545    104.245090
     -4.799800     46.842037     46.842037     93.684074
     -4.789790     40.992179     40.992179     81.984358
     -4.779780     35.497268     35.497268     70.994537
     -4.769770     30.935767     30.935767     61.871534
     -4.759760     27.506480     27.506480     55.012960
     -4.749750     25.128482     25.128482     50.256964
     -4.739740     23.594671     23.594671     47.189341
     -4.729730     22.702662     22.702662     45.405324
     -4.719720     22.318279     22.318279     44.636558
     -4.709710     22.364900     22.364900     44.729801
     -4.699700     22.765034     22.765034     45.530068
     -4.689690     23.382074     23.382074     46.764148
     -4.679680     24.011711     24.011711     48.023423
     -4.669670     24.447973     24.447973     48.895945
     -4.659660     24.605040     24.605040     49.210081
     -4.649650     24.633956     24.633956     49.267912
     -4.639640     24.957408     24.957408     49.914816
     -4.629630     26.169937     26.169937     52.339875
     -4.619620     28.810385     28.810385     57.620770
     -4.609610     33.084984     33.084984     66.169968
     -4.599600     38.667666     38.667666     77.335332
     -4.589590     44.695299     44.695299     89.390598
     -4.579580     49.999587     49.999587     99.999174
     -4.569570     53.503190     53.503190    107.006381
     -4.559560     54.615761     54.615761    109.231522
     -4.549550     53.452656     53.452656    106.905312
     -4.539540     50.778010     50.778010    101.556020
     -4.529530     47.701756     47.701756     95.403512
     -4.519520     45.267112     45.267112     90.534224
     -4.509510     44.099310     44.099310     88.198620
     -4.499499     44.241874     44.241874     88.483747
     -4.489489     45.216601     45.216601     90.433202
     -4.479479     46.253555     46.253555     92.507111
     -4.469469     46.583157     46.583157     93.166313
     -4.459459     45.678267     45.678267     91.356534
     -4.449449     43.373514     43.373514     86.747028
     -4.439439     39.850328     39.850328     79.700655
     -4.429429     35.530743     35.530743     71.061487
     -4.419419     30.946997     30.946997     61.893994
     -4.409409     26.639332     26.639332     53.278665
     -4.399399     23.095146     23.095146     46.190291
     -4.389389     20.707721     20.707721     41.415441
     -4.379379     19.727364     19.727364     39.454727
     -4.369369     20.203561     20.203561     40.407122
     -4.359359     21.949747     21.949747     43.899495
     -4.349349     24.571416     24.571416     49.142831
     -4.339339     27.571440     27.571440     55.142880
     -4.329329     30.500775     30.500775     61.001550
     -4.319319     33.090885     33.090885     66.181770
     -4.309309     35.308741     35.308741     70.617481
     -4.299299     37.311856     37.311856     74.623712
     -4.289289     39.325065     39.325065     78.650130
     -4.279279     41.489165     41.489165     82.978330
     -4.269269     43.737831     43.737831     87.475661
     -4.259259     45.750654     45.750654     91.501307
     -4.249249     47.012289     47.012289     94.024578
     -4.239239     46.976702     46.976702     93.953404
     -4.229229     45.289915     45.289915     90.579830
     -4.219219     41.981495     41.981495     83.962990
     -4.209209     37.526857     37.526857     75.053714
     -4.199199     32.730326     32.730326     65.460652
     -4.189189     28.466163     28.466163     56.932325
     -4.179179     25.391114     25.391114     50.782229
     -4.169169     23.759042     23.759042     47.518084
     -4.159159     23.415039     23.415039     46.830079
     -4.149149     23.955997     23.955997     47.911995
     -4.139139     24.966972     24.966972     49.933945
     -4.129129     26.213708     26.213708     52.427416
     -4.119119     27.698708     27.698708     55.397416
     -4.109109     29.556465     29.556465     59.112930
     -4.099099     31.845456     31.845456     63.690912
     -4.089089     34.355657     34.355657     68.711315
     -4.079079     36.555998     36.555998     73.111997
     -4.069069     37.740862     37.740862     75.481725
     -4.059059     37.323398     37.323398     74.646796
     -4.049049     35.129380     35.129380     70.258760
     -4.039039     31.532643     31.532643     63.065286
     -4.029029     27.356597     27.356597     54.713194
     -4.019019     23.594682     23.594682     47.189363
     -4.009009     21.093623     21.093623     42.187247
     -3.998999     20.343761     20.343761     40.687522
     -3.988989     21.441433     21.441433     42.882866
     -3.978979     24.189383     24.189383     48.378766
     -3.968969     28.244564     28.244564     56.489127
     -3.958959     33.232684     33.232684     66.465368
     -3.948949     38.802200     38.802200     77.604400
     -3.938939     44.640177     44.640177     89.280354
     -3.928929     50.483567     50.483567    100.967133
     -3.918919     56.133290     56.133290    112.266581
     -3.908909     61.447831     61.447831    122.895662
     -3.898899     66.291818     66.291818    132.583637
     -3.888889     70.448721     70.448721    140.897443
     -3.878879     73.547870     73.547870    147.095740
     -3.868869     75.068580     75.068580    150.137160
     -3.858859     74.453077     74.453077    148.906154
     -3.848849     71.301853     71.301853    142.603706
     -3.838839     65.574606     65.574606    131.149212
     -3.828829     57.706076     57.706076    115.412152
     -3.818819     48.576366     48.576366     97.152732
     -3.808809     39.333878     39.333878     78.667757
     -3.798799     31.127403     31.127403     62.254807
     -3.788789     24.836152     24.836152     49.672304
     -3.778779     20.881786     20.881786     41.763573
     -3.768769     19.172107     19.172107     38.344214
     -3.758759     19.180756     19.180756     38.361513
     -3.748749     20.129374     20.129374     40.258748
     -3.738739     21.217530     21.217530     42.435061
     -3.728729     21.841409     21.841409     43.682818
     -3.718719     21.749605     21.749605     43.499209
     -3.708709     21.099129     21.099129     42.198259
     -3.698699     20.394944     20.394944     40.789887
     -3.688689     20.322264     20.322264     40.644527
     -3.678679     21.511055     21.511055     43.022109
     -3.668669     24.299842     24.299842     48.599683
     -3.658659     28.578476     28.578476     57.156952
     -3.648649     33.773459     33.773459     67.546919
     -3.638639     38.991620     38.991620     77.983240
     -3.628629     43.274153     43.274153     86.548306
     -3.618619     45.864971     45.864971     91.729942
     -3.608609     46.394012     46.394012     92.788024
     -3.598599     44.921336     44.921336     89.842672
     -3.588589     41.853394     41.853394     83.706788
     -3.578579     37.788621     37.788621     75.577242
     -3.568569     33.354376     33.354376     66.708751
     -3.558559     29.073569     29.073569     58.147137
     -3.548549     25.276161     25.276161     50.552322
     -3.538539     22.064222     22.064222     44.128445
     -3.528529     19.339928     19.339928     38.679855
     -3.518519     16.894832     16.894832     33.789665
     -3.508509     14.532872     14.532872     29.065744
     -3.498498     12.177570     12.177570     24.355141
     -3.488488      9.917419      9.917419     19.834838
     -3.478478      7.973794      7.973794     15.947588
     -3.468468      6.612466      6.612466     13.224933
     -3.458458      6.039438      6.039438     12.078875
     -3.448448      6.318447      6.318447     12.636894
     -3.438438      7.332843      7.332843     14.665685
     -3.428428      8.802074      8.802074     17.604149
     -3.418418     10.354289     10.354289     20.708579
     -3.408408     11.643537     11.643537     23.287074
     -3.398398     12.480168     12.480168     24.960335
     -3.388388     12.926767     12.926767     25.853533
     -3.378378     13.315593     13.315593     26.631186
     -3.368368     14.171480     14.171480     28.342960
     -3.358358     16.061860     16.061860     32.123720
     -3.348348     19.419885     19.419885     38.839769
     -3.338338     24.386584     24.386584     48.773168
     -3.328328     30.704073     30.704073     61.408146
     -3.318318     37.683557     37.683557     75.367114
     -3.308308     44.274680     44.274680     88.549360
     -3.298298     49.257795     49.257795     98.515591
     -3.288288     51.544183     51.544183    103.088366
     -3.278278     50.504674     50.504674    101.009348
     -3.268268     46.197427     46.197427     92.394855
     -3.258258     39.381784     39.381784     78.763568
     -3.248248     31.296493     31.296493     62.592985
     -3.238238     23.295461     23.295461     46.590923
     -3.228228     16.496509     16.496509     32.993018
     -3.218218     11.570149     11.570149     23.140298
     -3.208208      8.705039      8.705039     17.410078
     -3.198198      7.701888      7.701888     15.403776
     -3.188188      8.118200      8.118200     16.236400
     -3.178178      9.411184      9.411184     18.822368
     -3.168168     11.065838     11.065838     22.131675
     -3.158158     12.710669     12.710669     25.421338
     -3.148148     14.207290     14.207290     28.414581
     -3.138138     15.676803     15.676803     31.353605
     -3.128128     17.427730     17.427730     34.855461
     -3.118118     19.788816     19.788816     39.577633
     -3.108108     22.905679     22.905679     45.811357
     -3.098098     26.595794     26.595794     53.191588
     -3.088088     30.342526     30.342526     60.685051
     -3.078078     33.446059     33.446059     66.892118
     -3.068068     35.268601     35.268601     70.537202
     -3.058058     35.458989     35.458989     70.917978
     -3.048048     34.051093     34.051093     68.102186
     -3.038038     31.399096     31.399096     62.798191
     -3.028028     28.001175     28.001175     56.002349
     -3.018018     24.317196     24.317196     48.634392
     -3.008008     20.673689     20.673689     41.347377
     -2.997998     17.283606     17.283606     34.567212
     -2.987988     14.336621     14.336621     28.673243
     -2.977978     12.083232     12.083232     24.166464
     -2.967968     10.854186     10.854186     21.708372
     -2.957958     11.001876     11.001876     22.003752
     -2.947948     12.789489     12.789489     25.578977
     -2.937938     16.270843     16.270843     32.541687
     -2.927928     21.203628     21.203628     42.407256
     -2.917918     27.031384     27.031384     54.062768
     -2.907908     32.956555     32.956555     65.913110
     -2.897898     38.102843     38.102843     76.205685
     -2.887888     41.729885     41.729885     83.459770
     -2.877878     43.430541     43.430541     86.861082
     -2.867868     43.232288     43.232288     86.464576
     -2.857858     41.553369     41.553369     83.106738
     -2.847848     39.024389     39.024389     78.048778
     -2.837838     36.249071     36.249071     72.498142
     -2.827828     33.609018     33.609018     67.218036
     -2.817818     31.196018     31.196018     62.392037
     -2.807808     28.890110     28.890110     57.780220
     -2.797798     26.527012     26.527012     53.054025
     -2.787788     24.056279     24.056279     48.112558
     -2.777778     21.605141     21.605141     43.210282
     -2.767768     19.423477     19.423477     38.846954
     -2.757758     17.756431     17.756431     35.512861
     -2.747748     16.730491     16.730491     33.460982
     -2.737738     16.323344     16.323344     32.646688
     -2.727728     16.427795     16.427795     32.855589
     -2.717718     16.954770     16.954770     33.909540
     -2.707708     17.893964     17.893964     35.787928
     -2.697698     19.283017     19.283017     38.566033
     -2.687688     21.106695     21.106695     42.213391
     -2.677678     23.206306     23.206306     46.412612
     -2.667668     25.281177     25.281177     50.562353
     -2.657658     27.002479     27.002479     54.004959
     -2.647648     28.176573     28.176573     56.353147
     -2.637638     28.851707     28.851707     57.703414
     -2.627628     29.293196     29.293196     58.586393
     -2.617618     29.837659     29.837659     59.675317
     -2.607608     30.714472     30.714472     61.428943
     -2.597598     31.936459     31.936459     63.872919
     -2.587588     33.306238     33.306238     66.612477
     -2.577578     34.507226     34.507226     69.014451
     -2.567568     35.208887     35.208887     70.417775
     -2.557558     35.136857     35.136857     70.273713
     -2.547548     34.109934     34.109934     68.219868
     -2.537538     32.076279     32.076279     64.152558
     -2.527528     29.164928     29.164928     58.329856
     -2.517518     25.726967     25.726967     51.453934
     -2.507508     22.316916     22.316916     44.633831
     -2.497497     19.584801     19.584801     39.169602
     -2.487487     18.100101     18.100101     36.200202
     -2.477477     18.174040     18.174040     36.348080
     -2.467467     19.757309     19.757309     39.514618
     -2.457457     22.461570     22.461570     44.923140
     -2.447447     25.701342     25.701342     51.402683
     -2.437437     28.901838     28.901838     57.803676
     -2.427427     31.688702     31.688702     63.377405
     -2.417417     33.979824     33.979824     67.959647
     -2.407407     35.937924     35.937924     71.875847
     -2.397397     37.802261     37.802261     75.604522
     -2.387387     39.675208     39.675208     79.350417
     -2.377377     41.368830     41.368830     82.737659
     -2.367367     42.399328     42.399328     84.798657
     -2.357357     42.152644     42.152644     84.305288
     -2.347347     40.157479     40.157479     80.314957
     -2.337337     36.338587     36.338587     72.677174
     -2.327327     31.125048     31.125048     62.250095
     -2.317317     25.360505     25.360505     50.721011
     -2.307307     20.062499     20.062499     40.124997
     -2.297297     16.143963     16.143963     32.287925
     -2.287287     14.206686     14.206686     28.413371
     -2.277277     14.459021     14.459021     28.918042
     -2.267267     16.744974     16.744974     33.489947
     -2.257257     20.636837     20.636837     41.273674
     -2.247247     25.544692     25.544692     51.089384
     -2.237237     30.815092     30.815092     61.630183
     -2.227227     35.808722     35.808722     71.617443
     -2.217217     39.956616     39.956616     79.913231
     -2.207207     42.800300     42.800300     85.600599
     -2.197197     44.025840     44.025840     88.051680
     -2.187187     43.501107     43.501107     87.002214
     -2.177177     41.314045     41.314045     82.628091
     -2.167167     37.790302     37.790302     75.580604
     -2.157157     33.456849     33.456849     66.913698
     -2.147147     28.931927     28.931927     57.863854
     -2.137137     24.761985     24.761985     49.523971
     -2.127127     21.269102     21.269102     42.538204
     -2.117117     18.483003     18.483003     36.966006
     -2.107107     16.194347     16.194347     32.388694
     -2.097097     14.100762     14.100762     28.201525
     -2.087087     11.967581     11.967581     23.935162
     -2.077077      9.724286      9.724286     19.448572
     -2.067067      7.462662      7.462662     14.925323
     -2.057057      5.359881      5.359881     10.719762
     -2.047047      3.582423      3.582423      7.164846
     -2.037037      2.220970      2.220970      4.441941
     -2.027027      1.275892      1.275892      2.551784
     -2.017017      0.682522      0.682522      1.365043
     -2.007007      0.352021      0.352021      0.704041
     -1.996997      0.207973      0.207973      0.415945
     -1.986987      0.211135      0.211135      0.422271
     -1.976977      0.374447      0.374447      0.748894
     -1.966967      0.772275      0.772275      1.544549
     -1.956957      1.542800      1.542800      3.085600
     -1.946947      2.875012      2.875012      5.750024
     -1.936937      4.968582      4.968582      9.937163
     -1.926927      7.961989      7.961989     15.923978
     -1.916917     11.842614     11.842614     23.685228
     -1.906907     16.374220     16.374220     32.748440
     -1.896897     21.086421     21.086421     42.172842
     -1.886887     25.354028     25.354028     50.708057
     -1.876877     28.553786     28.553786     57.107573
     -1.866867     30.243656     30.243656     60.487312
     -1.856857     30.292809     30.292809     60.585617
     -1.846847     28.910544     28.910544     57.821087
     -1.836837     26.566275     26.566275     53.132549
     -1.826827     23.834589     23.834589     47.669179
     -1.816817     21.221514     21.221514     42.443027
     -1.806807     19.028935     19.028935     38.057869
     -1.796797     17.299642     17.299642     34.599285
     -1.786787     15.858869     15.858869     31.717738
     -1.776777     14.432668     14.432668     28.865336
     -1.766767     12.790791     12.790791     25.581582
     -1.756757     10.850935     10.850935     21.701869
     -1.746747      8.703086      8.703086     17.406172
     -1.736737      6.556423      6.556423     13.112847
     -1.726727      4.649584      4.649584      9.299168
     -1.716717      3.175130      3.175130      6.350259
     -1.706707      2.248637      2.248637      4.497274
     -1.696697      1.919658      1.919658      3.839316
     -1.686687      2.197737      2.197737      4.395474
     -1.676677      3.063713      3.063713      6.127427
     -1.666667      4.452818      4.452818      8.905635
     -1.656657      6.220537      6.220537     12.441074
     -1.646647      8.120957      8.120957     16.241915
     -1.636637      9.828615      9.828615     19.657229
     -1.626627     11.015276     11.015276     22.030551
