# EIG2DOS: Utility for SIESTA to obtain the electronic density of states
#  E. Artacho, Apr 1999, A. Garcia, Apr 2012
#  Nick R. Papior, Feb 2017
# ------------------------------------------
# Eigenvalues calculated from a non-polarized calculation
# Eigenvalues read from siesta.EIG
# Kpoint weights read from siesta.KP
# Using smearing parameter:   0.0500
# Using 1000 points in the energy range
# Selected bands: 1 to: 2981
# Emin, Emax in file for selected band(s):    -27.1993644    218.3818560
# Nbands, Nspin, Nk   =   2981     1     1
# E_F                 =    -4.2156 eV --> (shifted to ZERO)
# Broadening          =     0.0500 eV
#
#        E            N(up)  (=)   N(down)         Ntot
     -5.000000     35.910815     35.910815     71.821631
     -4.989990     39.999375     39.999375     79.998750
     -4.979980     43.170021     43.170021     86.340042
     -4.969970     44.900369     44.900369     89.800739
     -4.959960     44.910479     44.910479     89.820959
     -4.949950     43.254060     43.254060     86.508119
     -4.939940     40.311339     40.311339     80.622677
     -4.929930     36.707042     36.707042     73.414084
     -4.919920     33.200225     33.200225     66.400450
     -4.909910     30.577912     30.577912     61.155825
     -4.899900     29.549391     29.549391     59.098782
     -4.889890     30.617496     30.617496     61.234992
     -4.879880     33.922555     33.922555     67.845111
     -4.869870     39.105562     39.105562     78.211124
     -4.859860     45.278146     45.278146     90.556293
     -4.849850     51.172962     51.172962    102.345923
     -4.839840     55.469542     55.469542    110.939084
     -4.829830     57.188807     57.188807    114.377613
     -4.819820     55.991794     55.991794    111.983588
     -4.809810     52.249998     52.249998    104.499995
     -4.799800     46.862866     46.862866     93.725732
     -4.789790     40.918144     40.918144     81.836288
     -4.779780     35.351899     35.351899     70.703798
     -4.769770     30.738655     30.738655     61.477310
     -4.759760     27.256833     27.256833     54.513666
     -4.749750     24.789118     24.789118     49.578236
     -4.739740     23.075485     23.075485     46.150970
     -4.729730     21.844562     21.844562     43.689123
     -4.719720     20.885011     20.885011     41.770023
     -4.709710     20.058002     20.058002     40.116004
     -4.699700     19.279849     19.279849     38.559699
     -4.689690     18.513219     18.513219     37.026438
     -4.679680     17.791569     17.791569     35.583137
     -4.669670     17.269483     17.269483     34.538967
     -4.659660     17.259619     17.259619     34.519238
     -4.649650     18.208418     18.208418     36.416836
     -4.639640     20.587117     20.587117     41.174234
     -4.629630     24.718436     24.718436     49.436872
     -4.619620     30.597434     30.597434     61.194867
     -4.609610     37.778875     37.778875     75.557749
     -4.599600     45.389953     45.389953     90.779905
     -4.589590     52.291791     52.291791    104.583582
     -4.579580     57.362976     57.362976    114.725952
     -4.569570     59.825134     59.825134    119.650268
     -4.559560     59.496064     59.496064    118.992129
     -4.549550     56.865165     56.865165    113.730330
     -4.539540     52.946738     52.946738    105.893476
     -4.529530     48.956225     48.956225     97.912449
     -4.519520     45.928368     45.928368     91.856736
     -4.509510     44.417501     44.417501     88.835002
     -4.499499     44.380781     44.380781     88.761561
     -4.489489     45.267883     45.267883     90.535766
     -4.479479     46.262163     46.262163     92.524325
     -4.469469     46.570330     46.570330     93.140660
     -4.459459     45.655515     45.655515     91.311031
     -4.449449     43.347400     43.347400     86.694799
     -4.439439     39.822164     39.822164     79.644328
     -4.429429     35.496382     35.496382     70.992763
     -4.419419     30.899742     30.899742     61.799484
     -4.409409     26.575295     26.575295     53.150589
     -4.399399     23.017560     23.017560     46.035119
     -4.389389     20.626831     20.626831     41.253663
     -4.379379     19.655281     19.655281     39.310561
     -4.369369     20.146895     20.146895     40.293790
     -4.359359     21.904438     21.904438     43.808877
     -4.349349     24.522899     24.522899     49.045798
     -4.339339     27.500187     27.500187     55.000375
     -4.329329     30.390350     30.390350     60.780700
     -4.319319     32.934654     32.934654     65.869307
     -4.309309     35.112528     35.112528     70.225057
     -4.299299     37.092145     37.092145     74.184290
     -4.289289     39.104320     39.104320     78.208640
     -4.279279     41.290667     41.290667     82.581334
     -4.269269     43.581843     43.581843     87.163686
     -4.259259     45.652543     45.652543     91.305087
     -4.249249     46.982164     46.982164     93.964327
     -4.239239     47.019688     47.019688     94.039376
     -4.229229     45.406380     45.406380     90.812761
     -4.219219     42.166914     42.166914     84.333828
     -4.209209     37.771293     37.771293     75.542585
     -4.199199     33.017681     33.017681     66.035363
     -4.189189     28.773607     28.773607     57.547213
     -4.179179     25.689474     25.689474     51.378947
     -4.169169     24.015061     24.015061     48.030122
     -4.159159     23.595853     23.595853     47.191706
     -4.149149     24.035049     24.035049     48.070097
     -4.139139     24.929668     24.929668     49.859336
     -4.129129     26.061072     26.061072     52.122145
     -4.119119     27.448148     27.448148     54.896295
     -4.109109     29.239761     29.239761     58.479522
     -4.099099     31.504534     31.504534     63.009067
     -4.089089     34.036566     34.036566     68.073131
     -4.079079     36.301559     36.301559     72.603118
     -4.069069     37.583079     37.583079     75.166159
     -4.059059     37.277576     37.277576     74.555151
     -4.049049     35.191979     35.191979     70.383959
     -4.039039     31.683636     31.683636     63.367272
     -4.029029     27.565094     27.565094     55.130187
     -4.019019     23.825347     23.825347     47.650693
     -4.009009     21.311809     21.311809     42.623618
     -3.998999     20.518928     20.518928     41.037856
     -3.988989     21.549801     21.549801     43.099603
     -3.978979     24.216747     24.216747     48.433494
     -3.968969     28.189049     28.189049     56.378098
     -3.958959     33.106177     33.106177     66.212353
     -3.948949     38.629261     38.629261     77.258522
     -3.938939     44.454322     44.454322     88.908644
     -3.928929     50.321868     50.321868    100.643735
     -3.918919     56.030503     56.030503    112.061005
     -3.908909     61.430770     61.430770    122.861540
     -3.898899     66.374234     66.374234    132.748468
     -3.888889     70.627154     70.627154    141.254309
     -3.878879     73.799774     73.799774    147.599548
     -3.868869     75.354452     75.354452    150.708903
     -3.858859     74.723583     74.723583    149.447167
     -3.848849     71.508919     71.508919    143.017838
     -3.838839     65.683157     65.683157    131.366313
     -3.828829     57.702191     57.702191    115.404383
     -3.818819     48.468811     48.468811     96.937623
     -3.808809     39.148864     39.148864     78.297728
     -3.798799     30.899333     30.899333     61.798665
     -3.788789     24.598434     24.598434     49.196868
     -3.778779     20.660888     20.660888     41.321777
     -3.768769     18.985757     18.985757     37.971514
     -3.758759     19.039075     19.039075     38.078150
     -3.748749     20.036925     20.036925     40.073851
     -3.738739     21.174918     21.174918     42.349836
     -3.728729     21.846217     21.846217     43.692435
     -3.718719     21.797217     21.797217     43.594435
     -3.708709     21.183794     21.183794     42.367589
     -3.698699     20.510763     20.510763     41.021526
     -3.688689     20.463325     20.463325     40.926650
     -3.678679     21.670222     21.670222     43.340445
     -3.668669     24.466743     24.466743     48.933487
     -3.658659     28.738241     28.738241     57.476483
     -3.648649     33.907904     33.907904     67.815808
     -3.638639     39.083351     39.083351     78.166701
     -3.628629     43.312045     43.312045     86.624090
     -3.618619     45.848054     45.848054     91.696108
     -3.608609     46.331269     46.331269     92.662538
     -3.598599     44.827274     44.827274     89.654549
     -3.588589     41.741957     41.741957     83.483914
     -3.578579     37.669030     37.669030     75.338059
     -3.568569     33.231060     33.231060     66.462119
     -3.558559     28.949478     28.949478     57.898956
     -3.548549     25.156589     25.156589     50.313178
     -3.538539     21.958221     21.958221     43.916442
     -3.528529     19.258279     19.258279     38.516558
     -3.518519     16.845879     16.845879     33.691758
     -3.508509     14.518729     14.518729     29.037457
     -3.498498     12.192806     12.192806     24.385613
     -3.488488      9.950729      9.950729     19.901458
     -3.478478      8.011634      8.011634     16.023267
     -3.468468      6.642934      6.642934     13.285869
     -3.458458      6.055025      6.055025     12.110050
     -3.448448      6.317078      6.317078     12.634155
     -3.438438      7.317277      7.317277     14.634554
     -3.428428      8.777910      8.777910     17.555820
     -3.418418     10.326577     10.326577     20.653155
     -3.408408     11.611710     11.611710     23.223419
     -3.398398     12.430607     12.430607     24.861213
     -3.388388     12.822030     12.822030     25.644061
     -3.378378     13.079510     13.079510     26.159020
     -3.368368     13.671211     13.671211     27.342421
     -3.358358     15.092765     15.092765     30.185529
     -3.348348     17.706100     17.706100     35.412200
     -3.338338     21.615518     21.615518     43.231035
     -3.328328     26.609404     26.609404     53.218807
     -3.318318     32.172861     32.172861     64.345722
     -3.308308     37.566703     37.566703     75.133405
     -3.298298     41.965650     41.965650     83.931301
     -3.288288     44.636999     44.636999     89.273998
     -3.278278     45.116733     45.116733     90.233467
     -3.268268     43.322302     43.322302     86.644604
     -3.258258     39.555058     39.555058     79.110116
     -3.248248     34.392829     34.392829     68.785659
     -3.238238     28.524651     28.524651     57.049302
     -3.228228     22.598957     22.598957     45.197913
     -3.218218     17.133437     17.133437     34.266874
     -3.208208     12.492455     12.492455     24.984911
     -3.198198      8.908190      8.908190     17.816380
     -3.188188      6.517076      6.517076     13.034153
     -3.178178      5.393272      5.393272     10.786543
     -3.168168      5.570235      5.570235     11.140470
     -3.158158      7.045366      7.045366     14.090732
     -3.148148      9.766035      9.766035     19.532069
     -3.138138     13.602140     13.602140     27.204281
     -3.128128     18.317383     18.317383     36.634766
     -3.118118     23.553446     23.553446     47.106892
     -3.108108     28.838049     28.838049     57.676098
     -3.098098     33.623642     33.623642     67.247284
     -3.088088     37.359927     37.359927     74.719853
     -3.078078     39.595109     39.595109     79.190218
     -3.068068     40.083329     40.083329     80.166658
     -3.058058     38.856640     38.856640     77.713280
     -3.048048     36.218736     36.218736     72.437471
     -3.038038     32.647898     32.647898     65.295795
     -3.028028     28.646742     28.646742     57.293484
     -3.018018     24.611835     24.611835     49.223669
     -3.008008     20.787072     20.787072     41.574144
     -2.997998     17.313528     17.313528     34.627055
     -2.987988     14.330803     14.330803     28.661605
     -2.977978     12.059898     12.059898     24.119795
     -2.967968     10.816703     10.816703     21.633406
     -2.957958     10.947705     10.947705     21.895410
     -2.947948     12.715537     12.715537     25.431074
     -2.937938     16.176996     16.176996     32.353993
     -2.927928     21.095107     21.095107     42.190214
     -2.917918     26.919554     26.919554     53.839108
     -2.907908     32.857524     32.857524     65.715049
     -2.897898     38.033758     38.033758     76.067516
     -2.887888     41.703944     41.703944     83.407888
     -2.877878     43.452651     43.452651     86.905303
     -2.867868     43.297332     43.297332     86.594663
     -2.857858     41.647928     41.647928     83.295856
     -2.847848     39.131151     39.131151     78.262303
     -2.837838     36.351914     36.351914     72.703828
     -2.827828     33.696664     33.696664     67.393329
     -2.817818     31.263184     31.263184     62.526368
     -2.807808     28.936416     28.936416     57.872832
     -2.797798     26.554851     26.554851     53.109702
     -2.787788     24.068889     24.068889     48.137778
     -2.777778     21.605557     21.605557     43.211115
     -2.767768     19.414293     19.414293     38.828586
     -2.757758     17.739840     17.739840     35.479679
     -2.747748     16.708102     16.708102     33.416204
     -2.737738     16.295653     16.295653     32.591306
     -2.727728     16.393725     16.393725     32.787450
     -2.717718     16.911959     16.911959     33.823918
     -2.707708     17.840208     17.840208     35.680416
     -2.697698     19.218518     19.218518     38.437037
     -2.687688     21.035896     21.035896     42.071792
     -2.677678     23.137833     23.137833     46.275665
     -2.667668     25.225202     25.225202     50.450404
     -2.657658     26.966331     26.966331     53.932662
     -2.647648     28.160798     28.160798     56.321596
     -2.637638     28.848975     28.848975     57.697951
     -2.627628     29.291059     29.291059     58.582118
     -2.617618     29.824001     29.824001     59.648002
     -2.607608     30.682929     30.682929     61.365858
     -2.597598     31.889118     31.889118     63.778236
     -2.587588     33.252586     33.252586     66.505172
     -2.577578     34.460367     34.460367     68.920734
     -2.567568     35.181170     35.181170     70.362341
     -2.557558     35.136672     35.136672     70.273344
     -2.547548     34.140184     34.140184     68.280367
     -2.537538     32.134010     32.134010     64.268019
     -2.527528     29.241585     29.241585     58.483170
     -2.517518     25.809340     25.809340     51.618681
     -2.507508     22.389305     22.389305     44.778610
     -2.497497     19.632600     19.632600     39.265201
     -2.487487     18.114105     18.114105     36.228210
     -2.477477     18.153975     18.153975     36.307951
     -2.467467     19.712992     19.712992     39.425983
     -2.457457     22.410832     22.410832     44.821664
     -2.447447     25.665150     25.665150     51.330299
     -2.437437     28.898247     28.898247     57.796495
     -2.427427     31.727843     31.727843     63.455686
     -2.417417     34.061655     34.061655     68.123311
     -2.407407     36.053218     36.053218     72.106436
     -2.397397     37.935882     37.935882     75.871764
     -2.387387     39.810086     39.810086     79.620172
     -2.377377     41.489309     41.489309     82.978619
     -2.367367     42.493416     42.493416     84.986832
     -2.357357     42.213302     42.213302     84.426604
     -2.347347     40.183184     40.183184     80.366368
     -2.337337     36.333060     36.333060     72.666120
     -2.327327     31.095975     31.095975     62.191950
     -2.317317     25.317418     25.317418     50.634835
     -2.307307     20.014486     20.014486     40.028971
     -2.297297     16.098115     16.098115     32.196230
     -2.287287     14.167775     14.167775     28.335550
     -2.277277     14.430195     14.430195     28.860390
     -2.267267     16.728662     16.728662     33.457324
     -2.257257     20.634992     20.634992     41.269983
     -2.247247     25.558031     25.558031     51.116062
     -2.237237     30.841814     30.841814     61.683627
     -2.227227     35.843718     35.843718     71.687435
     -2.217217     39.992088     39.992088     79.984176
     -2.207207     42.827904     42.827904     85.655808
     -2.197197     44.039456     44.039456     88.078913
     -2.187187     43.498842     43.498842     86.997684
     -2.177177     41.298448     41.298448     82.596895
     -2.167167     37.766810     37.766810     75.533620
     -2.157157     33.431438     33.431438     66.862877
     -2.147147     28.909172     28.909172     57.818345
     -2.137137     24.744261     24.744261     49.488521
     -2.127127     21.256861     21.256861     42.513723
     -2.117117     18.475578     18.475578     36.951156
     -2.107107     16.190688     16.190688     32.381376
     -2.097097     14.099842     14.099842     28.199684
     -2.087087     11.968509     11.968509     23.937017
     -2.077077      9.726293      9.726293     19.452586
     -2.067067      7.465103      7.465103     14.930206
     -2.057057      5.362282      5.362282     10.724564
     -2.047047      3.584562      3.584562      7.169125
     -2.037037      2.223019      2.223019      4.446037
     -2.027027      1.278747      1.278747      2.557494
     -2.017017      0.688663      0.688663      1.377326
     -2.007007      0.367418      0.367418      0.734835
     -1.996997      0.245711      0.245711      0.491422
     -1.986987      0.297127      0.297127      0.594254
     -1.976977      0.554417      0.554417      1.108835
     -1.966967      1.116859      1.116859      2.233719
     -1.956957      2.144675      2.144675      4.289349
     -1.946947      3.830718      3.830718      7.661437
     -1.936937      6.341327      6.341327     12.682653
     -1.926927      9.731890      9.731890     19.463780
     -1.916917     13.864537     13.864537     27.729074
     -1.906907     18.371350     18.371350     36.742700
     -1.896897     22.699906     22.699906     45.399813
     -1.886887     26.243369     26.243369     52.486738
     -1.876877     28.511361     28.511361     57.022721
     -1.866867     29.270995     29.270995     58.541989
     -1.856857     28.600341     28.600341     57.200683
     -1.846847     26.840774     26.840774     53.681549
     -1.836837     24.478834     24.478834     48.957669
     -1.826827     22.006117     22.006117     44.012233
     -1.816817     19.797312     19.797312     39.594624
     -1.806807     18.031160     18.031160     36.062319
     -1.796797     16.670302     16.670302     33.340604
     -1.786787     15.508340     15.508340     31.016681
     -1.776777     14.273781     14.273781     28.547563
     -1.766767     12.753675     12.753675     25.507349
     -1.756757     10.884396     10.884396     21.768792
     -1.746747      8.770851      8.770851     17.541701
     -1.736737      6.633582      6.633582     13.267163
     -1.726727      4.720578      4.720578      9.441157
     -1.716717      3.232395      3.232395      6.464791
     -1.706707      2.290886      2.290886      4.581772
     -1.696697      1.949617      1.949617      3.899235
     -1.686687      2.219796      2.219796      4.439592
     -1.676677      3.082012      3.082012      6.164025
     -1.666667      4.470039      4.470039      8.940078
     -1.656657      6.237426      6.237426     12.474852
     -1.646647      8.136502      8.136502     16.273004
     -1.636637      9.840778      9.840778     19.681555
     -1.626627     11.022090     11.022090     22.044180
