# EIG2DOS: Utility for SIESTA to obtain the electronic density of states
#  E. Artacho, Apr 1999, A. Garcia, Apr 2012
#  Nick R. Papior, Feb 2017
# ------------------------------------------
# Eigenvalues calculated from a non-polarized calculation
# Eigenvalues read from siesta.EIG
# Kpoint weights read from siesta.KP
# Using smearing parameter:   0.0500
# Using 1000 points in the energy range
# Selected bands: 1 to: 2981
# Emin, Emax in file for selected band(s):    -27.2037659    218.3910180
# Nbands, Nspin, Nk   =   2981     1     1
# E_F                 =    -4.2083 eV --> (shifted to ZERO)
# Broadening          =     0.0500 eV
#
#        E            N(up)  (=)   N(down)         Ntot
     -5.000000     33.475934     33.475934     66.951867
     -4.989990     38.109005     38.109005     76.218010
     -4.979980     42.183182     42.183182     84.366364
     -4.969970     45.006382     45.006382     90.012764
     -4.959960     46.065036     46.065036     92.130072
     -4.949950     45.194763     45.194763     90.389527
     -4.939940     42.640939     42.640939     85.281878
     -4.929930     39.002111     39.002111     78.004223
     -4.919920     35.099522     35.099522     70.199044
     -4.909910     31.826939     31.826939     63.653877
     -4.899900     30.007805     30.007805     60.015609
     -4.889890     30.253533     30.253533     60.507065
     -4.879880     32.813991     32.813991     65.627982
     -4.869870     37.446648     37.446648     74.893296
     -4.859860     43.373140     43.373140     86.746281
     -4.849850     49.394702     49.394702     98.789403
     -4.839840     54.179458     54.179458    108.358916
     -4.829830     56.641617     56.641617    113.283234
     -4.819820     56.265040     56.265040    112.530079
     -4.809810     53.232172     53.232172    106.464343
     -4.799800     48.306495     48.306495     96.612990
     -4.789790     42.532765     42.532765     85.065530
     -4.779780     36.895763     36.895763     73.791526
     -4.769770     32.074934     32.074934     64.149868
     -4.759760     28.362145     28.362145     56.724289
     -4.749750     25.723860     25.723860     51.447720
     -4.739740     23.936227     23.936227     47.872454
     -4.729730     22.718281     22.718281     45.436563
     -4.719720     21.819090     21.819090     43.638180
     -4.709710     21.052955     21.052955     42.105910
     -4.699700     20.304076     20.304076     40.608151
     -4.689690     19.530057     19.530057     39.060114
     -4.679680     18.781416     18.781416     37.562831
     -4.669670     18.229366     18.229366     36.458731
     -4.659660     18.173479     18.173479     36.346958
     -4.649650     19.000874     19.000874     38.001749
     -4.639640     21.091220     21.091220     42.182441
     -4.629630     24.690717     24.690717     49.381433
     -4.619620     29.794022     29.794022     59.588043
     -4.609610     36.071024     36.071024     72.142048
     -4.599600     42.865589     42.865589     85.731179
     -4.589590     49.284119     49.284119     98.568237
     -4.579580     54.376892     54.376892    108.753784
     -4.569570     57.383849     57.383849    114.767697
     -4.559560     57.974001     57.974001    115.948003
     -4.549550     56.381691     56.381691    112.763383
     -4.539540     53.362924     53.362924    106.725849
     -4.529530     49.963748     49.963748     99.927495
     -4.519520     47.177809     47.177809     94.355618
     -4.509510     45.624883     45.624883     91.249766
     -4.499499     45.375717     45.375717     90.751435
     -4.489489     45.984382     45.984382     91.968764
     -4.479479     46.700305     46.700305     93.400611
     -4.469469     46.761224     46.761224     93.522447
     -4.459459     45.646703     45.646703     91.293405
     -4.449449     43.205278     43.205278     86.410556
     -4.439439     39.635572     39.635572     79.271144
     -4.429429     35.367076     35.367076     70.734151
     -4.419419     30.917364     30.917364     61.834729
     -4.409409     26.787509     26.787509     53.575018
     -4.399399     23.411684     23.411684     46.823367
     -4.389389     21.134069     21.134069     42.268139
     -4.379379     20.176066     20.176066     40.352132
     -4.369369     20.584022     20.584022     41.168044
     -4.359359     22.187201     22.187201     44.374401
     -4.349349     24.612408     24.612408     49.224816
     -4.339339     27.378652     27.378652     54.757304
     -4.329329     30.047241     30.047241     60.094482
     -4.319319     32.363983     32.363983     64.727965
     -4.309309     34.327125     34.327125     68.654250
     -4.299299     36.147706     36.147706     72.295411
     -4.289289     38.116111     38.116111     76.232222
     -4.279279     40.425810     40.425810     80.851620
     -4.269269     43.021474     43.021474     86.042948
     -4.259259     45.535138     45.535138     91.070276
     -4.249249     47.351895     47.351895     94.703789
     -4.239239     47.803686     47.803686     95.607373
     -4.229229     46.431687     46.431687     92.863374
     -4.219219     43.209551     43.209551     86.419102
     -4.209209     38.616936     38.616936     77.233873
     -4.199199     33.512147     33.512147     67.024293
     -4.189189     28.850124     28.850124     57.700248
     -4.179179     25.371307     25.371307     50.742613
     -4.169169     23.399381     23.399381     46.798761
     -4.159159     22.825809     22.825809     45.651617
     -4.149149     23.264809     23.264809     46.529618
     -4.139139     24.286884     24.286884     48.573769
     -4.129129     25.614818     25.614818     51.229635
     -4.119119     27.194607     27.194607     54.389215
     -4.109109     29.116126     29.116126     58.232252
     -4.099099     31.429924     31.429924     62.859847
     -4.089089     33.962038     33.962038     67.924077
     -4.079079     36.241192     36.241192     72.482385
     -4.069069     37.605233     37.605233     75.210466
     -4.059059     37.458572     37.458572     74.917144
     -4.049049     35.559211     35.559211     71.118422
     -4.039039     32.183712     32.183712     64.367423
     -4.029029     28.077888     28.077888     56.155776
     -4.019019     24.216393     24.216393     48.432786
     -4.009009     21.492476     21.492476     42.984951
     -3.998999     20.480878     20.480878     40.961755
     -3.988989     21.357489     21.357489     42.714978
     -3.978979     23.966514     23.966514     47.933027
     -3.968969     27.959903     27.959903     55.919806
     -3.958959     32.927190     32.927190     65.854381
     -3.948949     38.474830     38.474830     76.949660
     -3.938939     44.262383     44.262383     88.524766
     -3.928929     50.021823     50.021823    100.043646
     -3.918919     55.569611     55.569611    111.139223
     -3.908909     60.794519     60.794519    121.589039
     -3.898899     65.600183     65.600183    131.200367
     -3.888889     69.810171     69.810171    139.620342
     -3.878879     73.083275     73.083275    146.166550
     -3.868869     74.903189     74.903189    149.806378
     -3.858859     74.680810     74.680810    149.361620
     -3.848849     71.950562     71.950562    143.901123
     -3.838839     66.586922     66.586922    133.173845
     -3.828829     58.945680     58.945680    117.891361
     -3.818819     49.859094     49.859094     99.718188
     -3.808809     40.473000     40.473000     80.946001
     -3.798799     31.977889     31.977889     63.955778
     -3.788789     25.325058     25.325058     50.650116
     -3.778779     21.018255     21.018255     42.036510
     -3.768769     19.036925     19.036925     38.073851
     -3.758759     18.899829     18.899829     37.799659
     -3.748749     19.837996     19.837996     39.675991
     -3.738739     21.023884     21.023884     42.047768
     -3.728729     21.798278     21.798278     43.596557
     -3.718719     21.842086     21.842086     43.684173
     -3.708709     21.252585     21.252585     42.505170
     -3.698699     20.501935     20.501935     41.003871
     -3.688689     20.281017     20.281017     40.562034
     -3.678679     21.263017     21.263017     42.526033
     -3.668669     23.852540     23.852540     47.705081
     -3.658659     28.004197     28.004197     56.008394
     -3.648649     33.183956     33.183956     66.367912
     -3.638639     38.500130     38.500130     77.000260
     -3.628629     42.961878     42.961878     85.923757
     -3.618619     45.765567     45.765567     91.531135
     -3.608609     46.498424     46.498424     92.996848
     -3.598599     45.194216     45.194216     90.388431
     -3.588589     42.248956     42.248956     84.497911
     -3.578579     38.259314     38.259314     76.518629
     -3.568569     33.854310     33.854310     67.708620
     -3.558559     29.562556     29.562556     59.125113
     -3.548549     25.726955     25.726955     51.453910
     -3.538539     22.469182     22.469182     44.938365
     -3.528529     19.710536     19.710536     39.421073
     -3.518519     17.251148     17.251148     34.502296
     -3.508509     14.887056     14.887056     29.774112
     -3.498498     12.520182     12.520182     25.040364
     -3.488488     10.213837     10.213837     20.427674
     -3.478478      8.172590      8.172590     16.345179
     -3.468468      6.662185      6.662185     13.324369
     -3.458458      5.907967      5.907967     11.815934
     -3.448448      6.009378      6.009378     12.018755
     -3.438438      6.893754      6.893754     13.787509
     -3.428428      8.319980      8.319980     16.639959
     -3.418418      9.935267      9.935267     19.870534
     -3.408408     11.378504     11.378504     22.757009
     -3.398398     12.405081     12.405081     24.810162
     -3.388388     12.989051     12.989051     25.978101
     -3.378378     13.356432     13.356432     26.712864
     -3.368368     13.928175     13.928175     27.856349
     -3.358358     15.191745     15.191745     30.383491
     -3.348348     17.550431     17.550431     35.100863
     -3.338338     21.199901     21.199901     42.399802
     -3.328328     26.056765     26.056765     52.113529
     -3.318318     31.738464     31.738464     63.476928
     -3.308308     37.589272     37.589272     75.178543
     -3.298298     42.760348     42.760348     85.520695
     -3.288288     46.357129     46.357129     92.714258
     -3.278278     47.643555     47.643555     95.287111
     -3.268268     46.248555     46.248555     92.497110
     -3.258258     42.292021     42.292021     84.584043
     -3.248248     36.366773     36.366773     72.733546
     -3.238238     29.375713     29.375713     58.751427
     -3.228228     22.290939     22.290939     44.581878
     -3.218218     15.931642     15.931642     31.863284
     -3.208208     10.836207     10.836207     21.672413
     -3.198198      7.250372      7.250372     14.500744
     -3.188188      5.201319      5.201319     10.402639
     -3.178178      4.601402      4.601402      9.202804
     -3.168168      5.330126      5.330126     10.660251
     -3.158158      7.268441      7.268441     14.536881
     -3.148148     10.288804     10.288804     20.577607
     -3.138138     14.223304     14.223304     28.446607
     -3.128128     18.833980     18.833980     37.667961
     -3.118118     23.798805     23.798805     47.597609
     -3.108108     28.715771     28.715771     57.431541
     -3.098098     33.125963     33.125963     66.251927
     -3.088088     36.561844     36.561844     73.123688
     -3.078078     38.625846     38.625846     77.251691
     -3.068068     39.086694     39.086694     78.173389
     -3.058058     37.955277     37.955277     75.910554
     -3.048048     35.493077     35.493077     70.986154
     -3.038038     32.132422     32.132422     64.264844
     -3.028028     28.338776     28.338776     56.677553
     -3.018018     24.484931     24.484931     48.969862
     -3.008008     20.802356     20.802356     41.604711
     -2.997998     17.426469     17.426469     34.852939
     -2.987988     14.494640     14.494640     28.989280
     -2.977978     12.228312     12.228312     24.456625
     -2.967968     10.947294     10.947294     21.894588
     -2.957958     11.005996     11.005996     22.011993
     -2.947948     12.678454     12.678454     25.356907
     -2.937938     16.035332     16.035332     32.070664
     -2.927928     20.855449     20.855449     41.710898
     -2.917918     26.606120     26.606120     53.212239
     -2.907908     32.513135     32.513135     65.026270
     -2.897898     37.717635     37.717635     75.435270
     -2.887888     41.483724     41.483724     82.967447
     -2.877878     43.389966     43.389966     86.779933
     -2.867868     43.430011     43.430011     86.860021
     -2.857858     41.975205     41.975205     83.950410
     -2.847848     39.608783     39.608783     79.217566
     -2.837838     36.900659     36.900659     73.801318
     -2.827828     34.221741     34.221741     68.443481
     -2.817818     31.677377     31.677377     63.354755
     -2.807808     29.178468     29.178468     58.356937
     -2.797798     26.598007     26.598007     53.196013
     -2.787788     23.919685     23.919685     47.839371
     -2.777778     21.296692     21.296692     42.593384
     -2.767768     18.995624     18.995624     37.991247
     -2.757758     17.269016     17.269016     34.538031
     -2.747748     16.239923     16.239923     32.479846
     -2.737738     15.869729     15.869729     31.739458
     -2.727728     16.023505     16.023505     32.047011
     -2.717718     16.581512     16.581512     33.163024
     -2.707708     17.514068     17.514068     35.028137
     -2.697698     18.863111     18.863111     37.726222
     -2.687688     20.642231     20.642231     41.284463
     -2.677678     22.731192     22.731192     45.462384
     -2.667668     24.853194     24.853194     49.706387
     -2.657658     26.669922     26.669922     53.339845
     -2.647648     27.945169     27.945169     55.890338
     -2.637638     28.673093     28.673093     57.346186
     -2.627628     29.084189     29.084189     58.168378
     -2.617618     29.520728     29.520728     59.041455
     -2.607608     30.257171     30.257171     60.514341
     -2.597598     31.369554     31.369554     62.739107
     -2.587588     32.714525     32.714525     65.429051
     -2.577578     34.002398     34.002398     68.004796
     -2.567568     34.899548     34.899548     69.799095
     -2.557558     35.105218     35.105218     70.210435
     -2.547548     34.395496     34.395496     68.790993
     -2.537538     32.663155     32.663155     65.326311
     -2.527528     29.973817     29.973817     59.947634
     -2.517518     26.619005     26.619005     53.238009
     -2.507508     23.116842     23.116842     46.233683
     -2.497497     20.122840     20.122840     40.245679
     -2.487487     18.260877     18.260877     36.521753
     -2.477477     17.934332     17.934332     35.868664
     -2.467467     19.196792     19.196792     38.393585
     -2.457457     21.740774     21.740774     43.481548
     -2.447447     25.014050     25.014050     50.028099
     -2.437437     28.419135     28.419135     56.838270
     -2.427427     31.514415     31.514415     63.028830
     -2.417417     34.131270     34.131270     68.262540
     -2.407407     36.355124     36.355124     72.710249
     -2.397397     38.378682     38.378682     76.757364
     -2.387387     40.297643     40.297643     80.595286
     -2.377377     41.953295     41.953295     83.906589
     -2.367367     42.912113     42.912113     85.824225
     -2.357357     42.610263     42.610263     85.220526
     -2.347347     40.606675     40.606675     81.213349
     -2.337337     36.826098     36.826098     73.652197
     -2.327327     31.671856     31.671856     63.343713
     -2.317317     25.952286     25.952286     51.904571
     -2.307307     20.658066     20.658066     41.316133
     -2.297297     16.693360     16.693360     33.386720
     -2.287287     14.667057     14.667057     29.334114
     -2.277277     14.801077     14.801077     29.602154
     -2.267267     16.950886     16.950886     33.901772
     -2.257257     20.695657     20.695657     41.391315
     -2.247247     25.451110     25.451110     50.902221
     -2.237237     30.573232     30.573232     61.146464
     -2.227227     35.438424     35.438424     70.876848
     -2.217217     39.497709     39.497709     78.995418
     -2.207207     42.310977     42.310977     84.621954
     -2.197197     43.573448     43.573448     87.146895
     -2.187187     43.146755     43.146755     86.293509
     -2.177177     41.095817     41.095817     82.191633
     -2.167167     37.712220     37.712220     75.424441
     -2.157157     33.489958     33.489958     66.979916
     -2.147147     29.028836     29.028836     58.057672
     -2.137137     24.878904     24.878904     49.757809
     -2.127127     21.384386     21.384386     42.768771
     -2.117117     18.602530     18.602530     37.205059
     -2.107107     16.341571     16.341571     32.683143
     -2.097097     14.298185     14.298185     28.596369
     -2.087087     12.220774     12.220774     24.441549
     -2.077077     10.016885     10.016885     20.033769
     -2.067067      7.763381      7.763381     15.526762
     -2.057057      5.636053      5.636053     11.272105
     -2.047047      3.812726      3.812726      7.625451
     -2.037037      2.403196      2.403196      4.806392
     -2.027027      1.430751      1.430751      2.861501
     -2.017017      0.858061      0.858061      1.716122
     -2.007007      0.633127      0.633127      1.266254
     -1.996997      0.731191      0.731191      1.462382
     -1.986987      1.177637      1.177637      2.355273
     -1.976977      2.045866      2.045866      4.091731
     -1.966967      3.430355      3.430355      6.860711
     -1.956957      5.401046      5.401046     10.802091
     -1.946947      7.952840      7.952840     15.905680
     -1.936937     10.970402     10.970402     21.940805
     -1.926927     14.227091     14.227091     28.454183
     -1.916917     17.424175     17.424175     34.848350
     -1.906907     20.257143     20.257143     40.514287
     -1.896897     22.481705     22.481705     44.963410
     -1.886887     23.953217     23.953217     47.906435
     -1.876877     24.629953     24.629953     49.259905
     -1.866867     24.551696     24.551696     49.103392
     -1.856857     23.816230     23.816230     47.632460
     -1.846847     22.569484     22.569484     45.138968
     -1.836837     21.005503     21.005503     42.011006
     -1.826827     19.355236     19.355236     38.710472
     -1.816817     17.844313     17.844313     35.688626
     -1.806807     16.623027     16.623027     33.246054
     -1.796797     15.701577     15.701577     31.403153
     -1.786787     14.935228     14.935228     29.870456
     -1.776777     14.082557     14.082557     28.165114
     -1.766767     12.916221     12.916221     25.832442
     -1.756757     11.330606     11.330606     22.661212
     -1.746747      9.390873      9.390873     18.781745
     -1.736737      7.303655      7.303655     14.607310
     -1.726727      5.334915      5.334915     10.669829
     -1.716717      3.724446      3.724446      7.448892
     -1.706707      2.636938      2.636938      5.273875
     -1.696697      2.158260      2.158260      4.316520
     -1.686687      2.316308      2.316308      4.632616
     -1.676677      3.095775      3.095775      6.191551
     -1.666667      4.428452      4.428452      8.856903
     -1.656657      6.165150      6.165150     12.330300
     -1.646647      8.056542      8.056542     16.113083
     -1.636637      9.774276      9.774276     19.548553
     -1.626627     10.985786     10.985786     21.971571
