# EIG2DOS: Utility for SIESTA to obtain the electronic density of states
#  E. Artacho, Apr 1999, A. Garcia, Apr 2012
#  Nick R. Papior, Feb 2017
# ------------------------------------------
# Eigenvalues calculated from a non-polarized calculation
# Eigenvalues read from siesta.EIG
# Kpoint weights read from siesta.KP
# Using smearing parameter:   0.0500
# Using 1000 points in the energy range
# Selected bands: 1 to: 2981
# Emin, Emax in file for selected band(s):    -27.2793595    218.4012050
# Nbands, Nspin, Nk   =   2981     1     1
# E_F                 =    -4.1906 eV --> (shifted to ZERO)
# Broadening          =     0.0500 eV
#
#        E            N(up)  (=)   N(down)         Ntot
     -5.000000     31.336530     31.336530     62.673060
     -4.989990     36.679893     36.679893     73.359785
     -4.979980     41.788730     41.788730     83.577461
     -4.969970     45.757824     45.757824     91.515649
     -4.959960     47.817206     47.817206     95.634412
     -4.949950     47.590924     47.590924     95.181848
     -4.939940     45.227432     45.227432     90.454865
     -4.929930     41.363416     41.363416     82.726833
     -4.919920     36.959245     36.959245     73.918491
     -4.909910     33.081634     33.081634     66.163267
     -4.899900     30.693762     30.693762     61.387524
     -4.889890     30.474315     30.474315     60.948630
     -4.879880     32.668000     32.668000     65.335999
     -4.869870     36.987828     36.987828     73.975656
     -4.859860     42.618344     42.618344     85.236687
     -4.849850     48.366300     48.366300     96.732600
     -4.839840     52.952778     52.952778    105.905555
     -4.829830     55.364472     55.364472    110.728945
     -4.819820     55.134025     55.134025    110.268051
     -4.809810     52.437566     52.437566    104.875131
     -4.799800     47.976911     47.976911     95.953821
     -4.789790     42.709700     42.709700     85.419400
     -4.779780     37.549764     37.549764     75.099529
     -4.769770     33.153949     33.153949     66.307897
     -4.759760     29.851688     29.851688     59.703376
     -4.749750     27.698887     27.698887     55.397775
     -4.739740     26.587834     26.587834     53.175667
     -4.729730     26.338933     26.338933     52.677866
     -4.719720     26.732275     26.732275     53.464551
     -4.709710     27.486456     27.486456     54.972912
     -4.699700     28.233194     28.233194     56.466388
     -4.689690     28.546473     28.546473     57.092947
     -4.679680     28.054581     28.054581     56.109163
     -4.669670     26.606041     26.606041     53.212083
     -4.659660     24.411155     24.411155     48.822310
     -4.649650     22.074044     22.074044     44.148087
     -4.639640     20.472595     20.472595     40.945190
     -4.629630     20.509721     20.509721     41.019442
     -4.619620     22.813070     22.813070     45.626141
     -4.609610     27.482664     27.482664     54.965328
     -4.599600     33.978114     33.978114     67.956229
     -4.589590     41.204359     41.204359     82.408717
     -4.579580     47.796971     47.796971     95.593941
     -4.569570     52.531342     52.531342    105.062684
     -4.559560     54.713078     54.713078    109.426156
     -4.549550     54.392523     54.392523    108.785045
     -4.539540     52.308022     52.308022    104.616044
     -4.529530     49.577953     49.577953     99.155906
     -4.519520     47.271490     47.271490     94.542981
     -4.509510     46.035184     46.035184     92.070368
     -4.499499     45.916795     45.916795     91.833590
     -4.489489     46.433816     46.433816     92.867631
     -4.479479     46.830174     46.830174     93.660347
     -4.469469     46.396638     46.396638     92.793276
     -4.459459     44.722458     44.722458     89.444917
     -4.449449     41.794097     41.794097     83.588193
     -4.439439     37.934526     37.934526     75.869051
     -4.429429     33.645660     33.645660     67.291320
     -4.419419     29.445130     29.445130     58.890260
     -4.409409     25.766176     25.766176     51.532352
     -4.399399     22.933659     22.933659     45.867317
     -4.389389     21.177609     21.177609     42.355218
     -4.379379     20.632568     20.632568     41.265136
     -4.369369     21.302195     21.302195     42.604390
     -4.359359     23.016679     23.016679     46.033358
     -4.349349     25.435039     25.435039     50.870079
     -4.339339     28.124333     28.124333     56.248666
     -4.329329     30.697505     30.697505     61.395009
     -4.319319     32.947935     32.947935     65.895870
     -4.309309     34.911469     34.911469     69.822938
     -4.299299     36.818574     36.818574     73.637148
     -4.289289     38.949338     38.949338     77.898677
     -4.279279     41.447211     41.447211     82.894422
     -4.269269     44.168869     44.168869     88.337739
     -4.259259     46.642641     46.642641     93.285281
     -4.249249     48.174907     48.174907     96.349814
     -4.239239     48.086011     48.086011     96.172021
     -4.229229     45.991835     45.991835     91.983670
     -4.219219     42.008336     42.008336     84.016672
     -4.209209     36.775368     36.775368     73.550737
     -4.199199     31.274499     31.274499     62.548998
     -4.189189     26.514308     26.514308     53.028616
     -4.179179     23.219647     23.219647     46.439295
     -4.169169     21.653567     21.653567     43.307134
     -4.159159     21.630960     21.630960     43.261920
     -4.149149     22.693494     22.693494     45.386988
     -4.139139     24.350462     24.350462     48.700924
     -4.129129     26.273139     26.273139     52.546277
     -4.119119     28.360043     28.360043     56.720086
     -4.109109     30.652203     30.652203     61.304406
     -4.099099     33.149631     33.149631     66.299262
     -4.089089     35.635246     35.635246     71.270492
     -4.079079     37.620249     37.620249     75.240499
     -4.069069     38.469346     38.469346     76.938692
     -4.059059     37.664430     37.664430     75.328860
     -4.049049     35.077069     35.077069     70.154137
     -4.039039     31.102757     31.102757     62.205514
     -4.029029     26.580454     26.580454     53.160908
     -4.019019     22.536025     22.536025     45.072051
     -4.009009     19.874465     19.874465     39.748931
     -3.998999     19.154169     19.154169     38.308337
     -3.988989     20.513886     20.513886     41.027771
     -3.978979     23.738888     23.738888     47.477777
     -3.968969     28.398812     28.398812     56.797623
     -3.958959     33.986572     33.986572     67.973145
     -3.948949     40.020584     40.020584     80.041169
     -3.938939     46.107905     46.107905     92.215810
     -3.928929     51.978402     51.978402    103.956804
     -3.918919     57.488735     57.488735    114.977470
     -3.908909     62.581876     62.581876    125.163752
     -3.898899     67.196632     67.196632    134.393263
     -3.888889     71.154319     71.154319    142.308638
     -3.878879     74.082099     74.082099    148.164198
     -3.868869     75.433802     75.433802    150.867603
     -3.858859     74.628769     74.628769    149.257538
     -3.848849     71.267480     71.267480    142.534959
     -3.838839     65.336164     65.336164    130.672328
     -3.828829     57.308920     57.308920    114.617840
     -3.818819     48.096581     48.096581     96.193163
     -3.808809     38.854125     38.854125     77.708251
     -3.798799     30.711627     30.711627     61.423254
     -3.788789     24.516008     24.516008     49.032015
     -3.778779     20.658614     20.658614     41.317228
     -3.768769     19.029009     19.029009     38.058017
     -3.758759     19.095609     19.095609     38.191219
     -3.748749     20.082210     20.082210     40.164419
     -3.738739     21.191224     21.191224     42.382449
     -3.728729     21.819011     21.819011     43.638022
     -3.718719     21.712944     21.712944     43.425888
     -3.708709     21.031806     21.031806     42.063612
     -3.698699     20.289759     20.289759     40.579519
     -3.688689     20.189764     20.189764     40.379529
     -3.678679     21.383500     21.383500     42.766999
     -3.668669     24.225197     24.225197     48.450394
     -3.658659     28.603155     28.603155     57.206311
     -3.648649     33.919472     33.919472     67.838945
     -3.638639     39.239551     39.239551     78.479102
     -3.628629     43.563076     43.563076     87.126152
     -3.618619     46.112399     46.112399     92.224797
     -3.608609     46.527456     46.527456     93.054913
     -3.598599     44.905767     44.905767     89.811534
     -3.588589     41.701167     41.701167     83.402334
     -3.578579     37.548842     37.548842     75.097683
     -3.568569     33.089968     33.089968     66.179936
     -3.558559     28.839144     28.839144     57.678289
     -3.548549     25.106107     25.106107     50.212215
     -3.538539     21.972196     21.972196     43.944392
     -3.528529     19.324423     19.324423     38.648846
     -3.518519     16.944405     16.944405     33.888811
     -3.508509     14.628046     14.628046     29.256092
     -3.498498     12.290702     12.290702     24.581405
     -3.488488     10.013827     10.013827     20.027654
     -3.478478      8.016873      8.016873     16.033746
     -3.468468      6.574033      6.574033     13.148065
     -3.458458      5.915496      5.915496     11.830991
     -3.448448      6.149815      6.149815     12.299629
     -3.438438      7.228449      7.228449     14.456897
     -3.428428      8.959705      8.959705     17.919410
     -3.418418     11.069755     11.069755     22.139510
     -3.408408     13.296158     13.296158     26.592317
     -3.398398     15.482130     15.482130     30.964260
     -3.388388     17.629155     17.629155     35.258309
     -3.378378     19.877797     19.877797     39.755594
     -3.368368     22.422944     22.422944     44.845888
     -3.358358     25.407650     25.407650     50.815299
     -3.348348     28.848734     28.848734     57.697468
     -3.338338     32.617771     32.617771     65.235541
     -3.328328     36.458233     36.458233     72.916467
     -3.318318     40.003394     40.003394     80.006788
     -3.308308     42.786217     42.786217     85.572434
     -3.298298     44.274533     44.274533     88.549065
     -3.288288     43.973717     43.973717     87.947435
     -3.278278     41.593796     41.593796     83.187591
     -3.268268     37.210961     37.210961     74.421922
     -3.258258     31.325906     31.325906     62.651812
     -3.248248     24.765667     24.765667     49.531334
     -3.238238     18.463445     18.463445     36.926890
     -3.228228     13.216635     13.216635     26.433270
     -3.218218      9.521952      9.521952     19.043904
     -3.208208      7.528771      7.528771     15.057542
     -3.198198      7.087978      7.087978     14.175956
     -3.188188      7.847115      7.847115     15.694230
     -3.178178      9.357091      9.357091     18.714181
     -3.168168     11.181495     11.181495     22.362990
     -3.158158     13.005428     13.005428     26.010855
     -3.148148     14.721965     14.721965     29.443929
     -3.138138     16.454374     16.454374     32.908747
     -3.128128     18.479979     18.479979     36.959959
     -3.118118     21.065076     21.065076     42.130152
     -3.108108     24.276366     24.276366     48.552732
     -3.098098     27.864050     27.864050     55.728099
     -3.088088     31.288251     31.288251     62.576502
     -3.078078     33.890457     33.890457     67.780913
     -3.068068     35.133286     35.133286     70.266572
     -3.058058     34.792223     34.792223     69.584447
     -3.048048     33.008151     33.008151     66.016301
     -3.038038     30.186548     30.186548     60.373097
     -3.028028     26.812094     26.812094     53.624188
     -3.018018     23.285546     23.285546     46.571092
     -3.008008     19.862311     19.862311     39.724622
     -2.997998     16.701335     16.701335     33.402670
     -2.987988     13.967762     13.967762     27.935525
     -2.977978     11.911859     11.911859     23.823718
     -2.967968     10.873488     10.873488     21.746976
     -2.957958     11.208558     11.208558     22.417116
     -2.947948     13.170063     13.170063     26.340126
     -2.937938     16.789086     16.789086     33.578172
     -2.927928     21.797248     21.797248     43.594495
     -2.917918     27.621871     27.621871     55.243743
     -2.907908     33.470275     33.470275     66.940550
     -2.897898     38.495412     38.495412     76.990824
     -2.887888     42.002650     42.002650     84.005301
     -2.877878     43.629787     43.629787     87.259574
     -2.867868     43.428653     43.428653     86.857306
     -2.857858     41.808011     41.808011     83.616023
     -2.847848     39.355515     39.355515     78.711030
     -2.837838     36.613897     36.613897     73.227794
     -2.827828     33.910808     33.910808     67.821615
     -2.817818     31.315323     31.315323     62.630645
     -2.807808     28.728283     28.728283     57.456567
     -2.797798     26.044013     26.044013     52.088027
     -2.787788     23.287200     23.287200     46.574400
     -2.777778     20.649883     20.649883     41.299765
     -2.767768     18.416202     18.416202     36.832405
     -2.757758     16.829269     16.829269     33.658538
     -2.747748     15.985708     15.985708     31.971416
     -2.737738     15.821101     15.821101     31.642202
     -2.727728     16.187718     16.187718     32.375437
     -2.717718     16.964025     16.964025     33.928050
     -2.707708     18.114666     18.114666     36.229331
     -2.697698     19.656302     19.656302     39.312604
     -2.687688     21.555921     21.555921     43.111843
     -2.677678     23.644072     23.644072     47.288144
     -2.667668     25.622656     25.622656     51.245313
     -2.657658     27.182512     27.182512     54.365023
     -2.647648     28.163869     28.163869     56.327738
     -2.637638     28.653871     28.653871     57.307743
     -2.627628     28.951018     28.951018     57.902036
     -2.617618     29.412629     29.412629     58.825258
     -2.607608     30.275384     30.275384     60.550768
     -2.597598     31.548268     31.548268     63.096536
     -2.587588     33.020485     33.020485     66.040970
     -2.577578     34.352529     34.352529     68.705057
     -2.567568     35.182938     35.182938     70.365876
     -2.557558     35.204415     35.204415     70.408831
     -2.547548     34.210442     34.210442     68.420885
     -2.537538     32.139746     32.139746     64.279492
     -2.527528     29.129839     29.129839     58.259678
     -2.517518     25.553465     25.553465     51.106930
     -2.507508     21.992853     21.992853     43.985706
     -2.497497     19.127450     19.127450     38.254901
     -2.487487     17.557683     17.557683     35.115365
     -2.477477     17.627565     17.627565     35.255130
     -2.467467     19.318019     19.318019     38.636037
     -2.457457     22.257690     22.257690     44.515379
     -2.447447     25.852495     25.852495     51.704990
     -2.437437     29.487426     29.487426     58.974853
     -2.427427     32.721789     32.721789     65.443579
     -2.417417     35.396206     35.396206     70.792412
     -2.407407     37.602586     37.602586     75.205172
     -2.397397     39.528551     39.528551     79.057103
     -2.387387     41.251042     41.251042     82.502085
     -2.377377     42.587982     42.587982     85.175963
     -2.367367     43.098058     43.098058     86.196116
     -2.357357     42.247701     42.247701     84.495403
     -2.347347     39.673663     39.673663     79.347326
     -2.337337     35.411035     35.411035     70.822070
     -2.327327     29.969175     29.969175     59.938350
     -2.317317     24.217586     24.217586     48.435173
     -2.307307     19.140882     19.140882     38.281764
     -2.297297     15.576746     15.576746     31.153493
     -2.287287     14.036981     14.036981     28.073962
     -2.277277     14.651355     14.651355     29.302710
     -2.267267     17.213024     17.213024     34.426047
     -2.257257     21.275419     21.275419     42.550839
     -2.247247     26.255615     26.255615     52.511230
     -2.237237     31.520106     31.520106     63.040212
     -2.227227     36.448108     36.448108     72.896215
     -2.217217     40.478366     40.478366     80.956731
     -2.207207     43.149772     43.149772     86.299545
     -2.197197     44.145616     44.145616     88.291233
     -2.187187     43.344450     43.344450     86.688899
     -2.177177     40.866044     40.866044     81.732089
     -2.167167     37.084342     37.084342     74.168684
     -2.157157     32.574986     32.574986     65.149972
     -2.147147     27.986034     27.986034     55.972068
     -2.137137     23.863143     23.863143     47.726286
     -2.127127     20.499054     20.499054     40.998108
     -2.117117     17.879896     17.879896     35.759792
     -2.107107     15.757093     15.757093     31.514185
     -2.097097     13.807831     13.807831     27.615662
     -2.087087     11.802116     11.802116     23.604233
     -2.077077      9.699285      9.699285     19.398571
     -2.067067      7.644390      7.644390     15.288780
     -2.057057      5.889629      5.889629     11.779259
     -2.047047      4.693183      4.693183      9.386367
     -2.037037      4.238021      4.238021      8.476043
     -2.027027      4.584684      4.584684      9.169368
     -2.017017      5.651348      5.651348     11.302697
     -2.007007      7.214680      7.214680     14.429360
     -1.996997      8.937547      8.937547     17.875093
     -1.986987     10.435076     10.435076     20.870153
     -1.976977     11.376719     11.376719     22.753438
     -1.966967     11.595764     11.595764     23.191529
     -1.956957     11.159938     11.159938     22.319877
     -1.946947     10.364484     10.364484     20.728969
     -1.936937      9.641568      9.641568     19.283136
     -1.926927      9.418090      9.418090     18.836181
     -1.916917      9.976042      9.976042     19.952084
     -1.906907     11.365442     11.365442     22.730884
     -1.896897     13.395480     13.395480     26.790960
     -1.886887     15.699005     15.699005     31.398011
     -1.876877     17.842234     17.842234     35.684468
     -1.866867     19.442573     19.442573     38.885147
     -1.856857     20.262294     20.262294     40.524588
     -1.846847     20.257776     20.257776     40.515551
     -1.836837     19.575486     19.575486     39.150972
     -1.826827     18.494649     18.494649     36.989297
     -1.816817     17.327614     17.327614     34.655228
     -1.806807     16.305938     16.305938     32.611876
     -1.796797     15.495735     15.495735     30.991469
     -1.786787     14.783757     14.783757     29.567514
     -1.776777     13.946679     13.946679     27.893357
     -1.766767     12.772215     12.772215     25.544430
     -1.756757     11.170708     11.170708     22.341416
     -1.746747      9.222170      9.222170     18.444339
     -1.736737      7.143187      7.143187     14.286375
     -1.726727      5.203154      5.203154     10.406307
     -1.716717      3.640450      3.640450      7.280900
     -1.706707      2.616726      2.616726      5.233452
     -1.696697      2.215120      2.215120      4.430241
     -1.686687      2.460062      2.460062      4.920123
     -1.676677      3.328682      3.328682      6.657363
     -1.666667      4.738229      4.738229      9.476457
     -1.656657      6.518957      6.518957     13.037914
     -1.646647      8.401463      8.401463     16.802927
     -1.636637     10.048098     10.048098     20.096197
     -1.626627     11.136820     11.136820     22.273640
