# EIG2DOS: Utility for SIESTA to obtain the electronic density of states
#  E. Artacho, Apr 1999, A. Garcia, Apr 2012
#  Nick R. Papior, Feb 2017
# ------------------------------------------
# Eigenvalues calculated from a non-polarized calculation
# Eigenvalues read from siesta.EIG
# Kpoint weights read from siesta.KP
# Using smearing parameter:   0.0500
# Using 1000 points in the energy range
# Selected bands: 1 to: 2981
# Emin, Emax in file for selected band(s):    -27.2876056    218.3787760
# Nbands, Nspin, Nk   =   2981     1     1
# E_F                 =    -4.2217 eV --> (shifted to ZERO)
# Broadening          =     0.0500 eV
#
#        E            N(up)  (=)   N(down)         Ntot
     -5.000000     32.136451     32.136451     64.272903
     -4.989990     36.910932     36.910932     73.821864
     -4.979980     41.339659     41.339659     82.679317
     -4.969970     44.681286     44.681286     89.362572
     -4.959960     46.318447     46.318447     92.636895
     -4.949950     45.962234     45.962234     91.924468
     -4.939940     43.754718     43.754718     87.509436
     -4.929930     40.242111     40.242111     80.484222
     -4.919920     36.250138     36.250138     72.500277
     -4.909910     32.718940     32.718940     65.437881
     -4.899900     30.537892     30.537892     61.075784
     -4.889890     30.387078     30.387078     60.774156
     -4.879880     32.580613     32.580613     65.161225
     -4.869870     36.933390     36.933390     73.866780
     -4.859860     42.712699     42.712699     85.425398
     -4.849850     48.743616     48.743616     97.487231
     -4.839840     53.685772     53.685772    107.371543
     -4.829830     56.409692     56.409692    112.819383
     -4.819820     56.330523     56.330523    112.661046
     -4.809810     53.558228     53.558228    107.116456
     -4.799800     48.803724     48.803724     97.607448
     -4.789790     43.094918     43.094918     86.189836
     -4.779780     37.437714     37.437714     74.875428
     -4.769770     32.561493     32.561493     65.122985
     -4.759760     28.823934     28.823934     57.647868
     -4.749750     26.263822     26.263822     52.527644
     -4.739740     24.732071     24.732071     49.464141
     -4.729730     24.020904     24.020904     48.041809
     -4.719720     23.937570     23.937570     47.875140
     -4.709710     24.309319     24.309319     48.618637
     -4.699700     24.943656     24.943656     49.887311
     -4.689690     25.591606     25.591606     51.183211
     -4.679680     25.962622     25.962622     51.925244
     -4.669670     25.812470     25.812470     51.624940
     -4.659660     25.078673     25.078673     50.157345
     -4.649650     23.996577     23.996577     47.993154
     -4.639640     23.119277     23.119277     46.238553
     -4.629630     23.196614     23.196614     46.393229
     -4.619620     24.929465     24.929465     49.858930
     -4.609610     28.678532     28.678532     57.357065
     -4.599600     34.244157     34.244157     68.488315
     -4.589590     40.825507     40.825507     81.651014
     -4.579580     47.208609     47.208609     94.417219
     -4.569570     52.138790     52.138790    104.277580
     -4.559560     54.743041     54.743041    109.486083
     -4.549550     54.829739     54.829739    109.659479
     -4.539540     52.935321     52.935321    105.870642
     -4.529530     50.095724     50.095724    100.191447
     -4.519520     47.441212     47.441212     94.882424
     -4.509510     45.785864     45.785864     91.571728
     -4.499499     45.374475     45.374475     90.748950
     -4.489489     45.870246     45.870246     91.740492
     -4.479479     46.559323     46.559323     93.118646
     -4.469469     46.663558     46.663558     93.327117
     -4.459459     45.625070     45.625070     91.250140
     -4.449449     43.260293     43.260293     86.520587
     -4.439439     39.754105     39.754105     79.508209
     -4.429429     35.537969     35.537969     71.075937
     -4.419419     31.134803     31.134803     62.269606
     -4.409409     27.042469     27.042469     54.084938
     -4.399399     23.680548     23.680548     47.361097
     -4.389389     21.375497     21.375497     42.750994
     -4.379379     20.341260     20.341260     40.682520
     -4.369369     20.635748     20.635748     41.271496
     -4.359359     22.115972     22.115972     44.231943
     -4.349349     24.439047     24.439047     48.878094
     -4.339339     27.140482     27.140482     54.280964
     -4.329329     29.775204     29.775204     59.550408
     -4.319319     32.063840     32.063840     64.127679
     -4.309309     33.976217     33.976217     67.952433
     -4.299299     35.710712     35.710712     71.421423
     -4.289289     37.573282     37.573282     75.146564
     -4.279279     39.800184     39.800184     79.600368
     -4.269269     42.390802     42.390802     84.781605
     -4.259259     45.019940     45.019940     90.039879
     -4.249249     47.081049     47.081049     94.162099
     -4.239239     47.869416     47.869416     95.738832
     -4.229229     46.852106     46.852106     93.704213
     -4.219219     43.915610     43.915610     87.831220
     -4.209209     39.470978     39.470978     78.941955
     -4.199199     34.351385     34.351385     68.702769
     -4.189189     29.537068     29.537068     59.074137
     -4.179179     25.830604     25.830604     51.661208
     -4.169169     23.627880     23.627880     47.255760
     -4.159159     22.875440     22.875440     45.750879
     -4.149149     23.209194     23.209194     46.418389
     -4.139139     24.187570     24.187570     48.375140
     -4.129129     25.500831     25.500831     51.001662
     -4.119119     27.062087     27.062087     54.124174
     -4.109109     28.946095     28.946095     57.892190
     -4.099099     31.214522     31.214522     62.429044
     -4.089089     33.725142     33.725142     67.450284
     -4.079079     36.040906     36.040906     72.081812
     -4.069069     37.514143     37.514143     75.028286
     -4.059059     37.529881     37.529881     75.059762
     -4.049049     35.796145     35.796145     71.592290
     -4.039039     32.529410     32.529410     65.058820
     -4.029029     28.432501     28.432501     56.865003
     -4.019019     24.473393     24.473393     48.946786
     -4.009009     21.576366     21.576366     43.152731
     -3.998999     20.369137     20.369137     40.738274
     -3.988989     21.079376     21.079376     42.158751
     -3.978979     23.583445     23.583445     47.166891
     -3.968969     27.539451     27.539451     55.078902
     -3.958959     32.522041     32.522041     65.044082
     -3.948949     38.111887     38.111887     76.223775
     -3.938939     43.940987     43.940987     87.881975
     -3.928929     49.718098     49.718098     99.436195
     -3.918919     55.245892     55.245892    110.491784
     -3.908909     60.414550     60.414550    120.829100
     -3.898899     65.148715     65.148715    130.297430
     -3.888889     69.310669     69.310669    138.621338
     -3.878879     72.604347     72.604347    145.208693
     -3.868869     74.547136     74.547136    149.094272
     -3.858859     74.555723     74.555723    149.111445
     -3.848849     72.135624     72.135624    144.271248
     -3.838839     67.104028     67.104028    134.208055
     -3.828829     59.747662     59.747662    119.495325
     -3.818819     50.838274     50.838274    101.676547
     -3.808809     41.486838     41.486838     82.973675
     -3.798799     32.883658     32.883658     65.767316
     -3.788789     26.013447     26.013447     52.026894
     -3.778779     21.436662     21.436662     42.873323
     -3.768769     19.196570     19.196570     38.393140
     -3.758759     18.865651     18.865651     37.731301
     -3.748749     19.705025     19.705025     39.410050
     -3.738739     20.887039     20.887039     41.774078
     -3.728729     21.723706     21.723706     43.447413
     -3.718719     21.847611     21.847611     43.695222
     -3.708709     21.302879     21.302879     42.605759
     -3.698699     20.520900     20.520900     41.041800
     -3.688689     20.179336     20.179336     40.358672
     -3.678679     20.973454     20.973454     41.946907
     -3.668669     23.360967     23.360967     46.721935
     -3.658659     27.363507     27.363507     54.727013
     -3.648649     32.503155     32.503155     65.006311
     -3.638639     37.911283     37.911283     75.822567
     -3.628629     42.578384     42.578384     85.156767
     -3.618619     45.649822     45.649822     91.299644
     -3.608609     46.651658     46.651658     93.303316
     -3.598599     45.569035     45.569035     91.138070
     -3.588589     42.773944     42.773944     85.547889
     -3.578579     38.861982     38.861982     77.723963
     -3.568569     34.474297     34.474297     68.948594
     -3.558559     30.155517     30.155517     60.311033
     -3.548549     26.264165     26.264165     52.528330
     -3.538539     22.936674     22.936674     45.873349
     -3.528529     20.107697     20.107697     40.215394
     -3.518519     17.586855     17.586855     35.173711
     -3.508509     15.173000     15.173000     30.346000
     -3.498498     12.763789     12.763789     25.527579
     -3.488488     10.414233     10.414233     20.828465
     -3.478478      8.321416      8.321416     16.642832
     -3.468468      6.748493      6.748493     13.496985
     -3.458458      5.924807      5.924807     11.849615
     -3.448448      5.959764      5.959764     11.919527
     -3.438438      6.794565      6.794565     13.589131
     -3.428428      8.203394      8.203394     16.406789
     -3.418418      9.848555      9.848555     19.697110
     -3.408408     11.384755     11.384755     22.769511
     -3.398398     12.588891     12.588891     25.177782
     -3.388388     13.470021     13.470021     26.940043
     -3.378378     14.307492     14.307492     28.614984
     -3.368368     15.586116     15.586116     31.172231
     -3.358358     17.839467     17.839467     35.678934
     -3.348348     21.452457     21.452457     42.904915
     -3.338338     26.490273     26.490273     52.980546
     -3.328328     32.607912     32.607912     65.215825
     -3.318318     39.066649     39.066649     78.133298
     -3.308308     44.857573     44.857573     89.715145
     -3.298298     48.912589     48.912589     97.825178
     -3.288288     50.362621     50.362621    100.725242
     -3.278278     48.777703     48.777703     97.555405
     -3.268268     44.307949     44.307949     88.615897
     -3.258258     37.661640     37.661640     75.323279
     -3.248248     29.915061     29.915061     59.830121
     -3.238238     22.223070     22.223070     44.446140
     -3.228228     15.543792     15.543792     31.087585
     -3.218218     10.474776     10.474776     20.949553
     -3.208208      7.232499      7.232499     14.464998
     -3.198198      5.736559      5.736559     11.473117
     -3.188188      5.727206      5.727206     11.454413
     -3.178178      6.861477      6.861477     13.722953
     -3.168168      8.775802      8.775802     17.551603
     -3.158158     11.135241     11.135241     22.270482
     -3.148148     13.688456     13.688456     27.376912
     -3.138138     16.318999     16.318999     32.637997
     -3.128128     19.056052     19.056052     38.112105
     -3.118118     22.011358     22.011358     44.022717
     -3.108108     25.250249     25.250249     50.500498
     -3.098098     28.657563     28.657563     57.315127
     -3.088088     31.882056     31.882056     63.764111
     -3.078078     34.410312     34.410312     68.820623
     -3.068068     35.747187     35.747187     71.494374
     -3.058058     35.611681     35.611681     71.223362
     -3.048048     34.042721     34.042721     68.085443
     -3.038038     31.361402     31.361402     62.722803
     -3.028028     28.021442     28.021442     56.042884
     -3.018018     24.441588     24.441588     48.883176
     -3.008008     20.912830     20.912830     41.825659
     -2.997998     17.615313     17.615313     35.230625
     -2.987988     14.708346     14.708346     29.416692
     -2.977978     12.419240     12.419240     24.838480
     -2.967968     11.069470     11.069470     22.138940
     -2.957958     11.020261     11.020261     22.040521
     -2.947948     12.561205     12.561205     25.122410
     -2.937938     15.785667     15.785667     31.571335
     -2.927928     20.497549     20.497549     40.995098
     -2.917918     26.185660     26.185660     52.371319
     -2.907908     32.088038     32.088038     64.176076
     -2.897898     37.345104     37.345104     74.690207
     -2.887888     41.207081     41.207081     82.414161
     -2.877878     43.229602     43.229602     86.459204
     -2.867868     43.381778     43.381778     86.763556
     -2.857858     42.016913     42.016913     84.033827
     -2.847848     39.711967     39.711967     79.423934
     -2.837838     37.042279     37.042279     74.084559
     -2.827828     34.390310     34.390310     68.780619
     -2.817818     31.870744     31.870744     63.741489
     -2.807808     29.395036     29.395036     58.790072
     -2.797798     26.827035     26.827035     53.654070
     -2.787788     24.137152     24.137152     48.274304
     -2.777778     21.470020     21.470020     42.940039
     -2.767768     19.095027     19.095027     38.190055
     -2.757758     17.278544     17.278544     34.557089
     -2.747748     16.160674     16.160674     32.321347
     -2.737738     15.712265     15.712265     31.424529
     -2.727728     15.794016     15.794016     31.588032
     -2.717718     16.272012     16.272012     32.544023
     -2.707708     17.106268     17.106268     34.212536
     -2.697698     18.347433     18.347433     36.694865
     -2.687688     20.041966     20.041966     40.083931
     -2.677678     22.114972     22.114972     44.229944
     -2.667668     24.322930     24.322930     48.645859
     -2.657658     26.325416     26.325416     52.650831
     -2.647648     27.842237     27.842237     55.684474
     -2.637638     28.798133     28.798133     57.596266
     -2.627628     29.359597     29.359597     58.719194
     -2.617618     29.837771     29.837771     59.675543
     -2.607608     30.518019     30.518019     61.036038
     -2.597598     31.517945     31.517945     63.035890
     -2.587588     32.744832     32.744832     65.489663
     -2.577578     33.950449     33.950449     67.900897
     -2.567568     34.825539     34.825539     69.651078
     -2.557558     35.076573     35.076573     70.153147
     -2.547548     34.471103     34.471103     68.942207
     -2.537538     32.877427     32.877427     65.754853
     -2.527528     30.321988     30.321988     60.643976
     -2.517518     27.049895     27.049895     54.099790
     -2.507508     23.540072     23.540072     47.080145
     -2.497497     20.432131     20.432131     40.864262
     -2.487487     18.366851     18.366851     36.733702
     -2.477477     17.794599     17.794599     35.589197
     -2.467467     18.831320     18.831320     37.662640
     -2.457457     21.226261     21.226261     42.452522
     -2.447447     24.459390     24.459390     48.918780
     -2.437437     27.931560     27.931560     55.863120
     -2.427427     31.169461     31.169461     62.338922
     -2.417417     33.957675     33.957675     67.915351
     -2.407407     36.338924     36.338924     72.677849
     -2.397397     38.482312     38.482312     76.964625
     -2.387387     40.483850     40.483850     80.967701
     -2.377377     42.202649     42.202649     84.405298
     -2.367367     43.226918     43.226918     86.453835
     -2.357357     43.004538     43.004538     86.009075
     -2.347347     41.088572     41.088572     82.177145
     -2.337337     37.382528     37.382528     74.765056
     -2.327327     32.263443     32.263443     64.526886
     -2.317317     26.520907     26.520907     53.041814
     -2.307307     21.142440     21.142440     42.284880
     -2.297297     17.044617     17.044617     34.089235
     -2.287287     14.857680     14.857680     29.715360
     -2.277277     14.825384     14.825384     29.650768
     -2.267267     16.819913     16.819913     33.639826
     -2.257257     20.431177     20.431177     40.862355
     -2.247247     25.082306     25.082306     50.164612
     -2.237237     30.136664     30.136664     60.273327
     -2.227227     34.979296     34.979296     69.958592
     -2.217217     39.069236     39.069236     78.138472
     -2.207207     41.969260     41.969260     83.938519
     -2.197197     43.367390     43.367390     86.734780
     -2.187187     43.105399     43.105399     86.210798
     -2.177177     41.217933     41.217933     82.435865
     -2.167167     37.963675     37.963675     75.927351
     -2.157157     33.812273     33.812273     67.624546
     -2.147147     29.357542     29.357542     58.715083
     -2.137137     25.164946     25.164946     50.329891
     -2.127127     21.609119     21.609119     43.218237
     -2.117117     18.779235     18.779235     37.558471
     -2.107107     16.503110     16.503110     33.006219
     -2.097097     14.477628     14.477628     28.955256
     -2.087087     12.435065     12.435065     24.870130
     -2.077077     10.260882     10.260882     20.521764
     -2.067067      8.015199      8.015199     16.030397
     -2.057057      5.868675      5.868675     11.737351
     -2.047047      4.004884      4.004884      8.009768
     -2.037037      2.544665      2.544665      5.089331
     -2.027027      1.521233      1.521233      3.042466
     -2.017017      0.901915      0.901915      1.803829
     -2.007007      0.633170      0.633170      1.266340
     -1.996997      0.684159      0.684159      1.368318
     -1.986987      1.072817      1.072817      2.145634
     -1.976977      1.867599      1.867599      3.735198
     -1.966967      3.164268      3.164268      6.328537
     -1.956957      5.042607      5.042607     10.085213
     -1.946947      7.515225      7.515225     15.030451
     -1.936937     10.487804     10.487804     20.975607
     -1.926927     13.750675     13.750675     27.501351
     -1.916917     17.011042     17.011042     34.022083
     -1.906907     19.956224     19.956224     39.912448
     -1.896897     22.322277     22.322277     44.644554
     -1.886887     23.940277     23.940277     47.880554
     -1.876877     24.747024     24.747024     49.494049
     -1.866867     24.768192     24.768192     49.536385
     -1.856857     24.095281     24.095281     48.190561
     -1.846847     22.873624     22.873624     45.747247
     -1.836837     21.300247     21.300247     42.600493
     -1.826827     19.612330     19.612330     39.224661
     -1.816817     18.046019     18.046019     36.092038
     -1.806807     16.766542     16.766542     33.533085
     -1.796797     15.800648     15.800648     31.601296
     -1.786787     15.016151     15.016151     30.032303
     -1.776777     14.174638     14.174638     28.349276
     -1.766767     13.040417     13.040417     26.080834
     -1.756757     11.491731     11.491731     22.983461
     -1.746747      9.576924      9.576924     19.153849
     -1.736737      7.491759      7.491759     14.983517
     -1.726727      5.499911      5.499911     10.999822
     -1.716717      3.845546      3.845546      7.691092
     -1.706707      2.700084      2.700084      5.400169
     -1.696697      2.155084      2.155084      4.310169
     -1.686687      2.242651      2.242651      4.485302
     -1.676677      2.952516      2.952516      5.905031
     -1.666667      4.225190      4.225190      8.450380
     -1.656657      5.924442      5.924442     11.848885
     -1.646647      7.814687      7.814687     15.629375
     -1.636637      9.575468      9.575468     19.150937
     -1.626627     10.869771     10.869771     21.739542
