# EIG2DOS: Utility for SIESTA to obtain the electronic density of states
#  E. Artacho, Apr 1999, A. Garcia, Apr 2012
#  Nick R. Papior, Feb 2017
# ------------------------------------------
# Eigenvalues calculated from a non-polarized calculation
# Eigenvalues read from siesta.EIG
# Kpoint weights read from siesta.KP
# Using smearing parameter:   0.0500
# Using 1000 points in the energy range
# Selected bands: 1 to: 2981
# Emin, Emax in file for selected band(s):    -27.4030270    218.3905950
# Nbands, Nspin, Nk   =   2981     1     1
# E_F                 =    -4.2099 eV --> (shifted to ZERO)
# Broadening          =     0.0500 eV
#
#        E            N(up)  (=)   N(down)         Ntot
     -5.000000     30.806800     30.806800     61.613599
     -4.989990     35.621199     35.621199     71.242398
     -4.979980     40.317827     40.317827     80.635655
     -4.969970     44.134262     44.134262     88.268525
     -4.959960     46.361432     46.361432     92.722864
     -4.949950     46.576254     46.576254     93.152508
     -4.939940     44.791831     44.791831     89.583662
     -4.929930     41.473319     41.473319     82.946638
     -4.919920     37.430807     37.430807     74.861614
     -4.909910     33.643347     33.643347     67.286693
     -4.899900     31.068355     31.068355     62.136710
     -4.889890     30.462113     30.462113     60.924226
     -4.879880     32.216945     32.216945     64.433889
     -4.869870     36.233243     36.233243     72.466487
     -4.859860     41.875923     41.875923     83.751847
     -4.849850     48.074159     48.074159     96.148317
     -4.839840     53.580512     53.580512    107.161023
     -4.829830     57.323715     57.323715    114.647430
     -4.819820     58.720435     58.720435    117.440871
     -4.809810     57.809057     57.809057    115.618114
     -4.799800     55.146558     55.146558    110.293116
     -4.789790     51.526842     51.526842    103.053684
     -4.779780     47.664636     47.664636     95.329273
     -4.769770     43.991034     43.991034     87.982069
     -4.759760     40.627800     40.627800     81.255600
     -4.749750     37.502961     37.502961     75.005922
     -4.739740     34.506069     34.506069     69.012139
     -4.729730     31.588601     31.588601     63.177202
     -4.719720     28.773525     28.773525     57.547051
     -4.709710     26.101633     26.101633     52.203266
     -4.699700     23.573802     23.573802     47.147603
     -4.689690     21.139427     21.139427     42.278854
     -4.679680     18.746129     18.746129     37.492257
     -4.669670     16.427050     16.427050     32.854101
     -4.659660     14.378541     14.378541     28.757082
     -4.649650     12.981863     12.981863     25.963725
     -4.639640     12.744518     12.744518     25.489037
     -4.629630     14.167407     14.167407     28.334815
     -4.619620     17.571009     17.571009     35.142019
     -4.609610     22.931824     22.931824     45.863648
     -4.599600     29.788148     29.788148     59.576296
     -4.589590     37.267344     37.267344     74.534688
     -4.579580     44.256995     44.256995     88.513989
     -4.569570     49.689775     49.689775     99.379550
     -4.559560     52.854928     52.854928    105.709857
     -4.549550     53.619247     53.619247    107.238494
     -4.539540     52.461335     52.461335    104.922671
     -4.529530     50.292486     50.292486    100.584972
     -4.519520     48.125797     48.125797     96.251594
     -4.509510     46.720764     46.720764     93.441527
     -4.499499     46.341859     46.341859     92.683719
     -4.489489     46.720193     46.720193     93.440386
     -4.479479     47.219339     47.219339     94.438677
     -4.469469     47.120899     47.120899     94.241798
     -4.459459     45.902567     45.902567     91.805134
     -4.449449     43.399961     43.399961     86.799921
     -4.439439     39.810186     39.810186     79.620372
     -4.429429     35.572490     35.572490     71.144980
     -4.419419     31.208708     31.208708     62.417415
     -4.409409     27.201676     27.201676     54.403351
     -4.399399     23.942827     23.942827     47.885654
     -4.389389     21.725780     21.725780     43.451560
     -4.379379     20.738724     20.738724     41.477448
     -4.369369     21.029024     21.029024     42.058048
     -4.359359     22.458304     22.458304     44.916607
     -4.349349     24.696361     24.696361     49.392722
     -4.339339     27.291097     27.291097     54.582195
     -4.329329     29.805974     29.805974     59.611949
     -4.319319     31.969578     31.969578     63.939156
     -4.309309     33.765927     33.765927     67.531853
     -4.299299     35.417635     35.417635     70.835269
     -4.289289     37.260389     37.260389     74.520779
     -4.279279     39.552512     39.552512     79.105024
     -4.269269     42.292266     42.292266     84.584533
     -4.259259     45.122113     45.122113     90.244226
     -4.249249     47.378706     47.378706     94.757412
     -4.239239     48.296616     48.296616     96.593232
     -4.229229     47.302571     47.302571     94.605143
     -4.219219     44.278010     44.278010     88.556021
     -4.209209     39.662290     39.662290     79.324581
     -4.199199     34.334510     34.334510     68.669019
     -4.189189     29.319550     29.319550     58.639101
     -4.179179     25.451614     25.451614     50.903229
     -4.169169     23.143909     23.143909     46.287819
     -4.159159     22.350700     22.350700     44.701401
     -4.149149     22.709462     22.709462     45.418924
     -4.139139     23.772257     23.772257     47.544515
     -4.129129     25.210530     25.210530     50.421060
     -4.119119     26.905515     26.905515     53.811031
     -4.109109     28.895569     28.895569     57.791137
     -4.099099     31.217365     31.217365     62.434730
     -4.089089     33.729268     33.729268     67.458537
     -4.079079     36.021954     36.021954     72.043907
     -4.069069     37.487627     37.487627     74.975254
     -4.059059     37.539419     37.539419     75.078839
     -4.049049     35.883844     35.883844     71.767687
     -4.039039     32.706490     32.706490     65.412979
     -4.029029     28.668309     28.668309     57.336619
     -4.019019     24.708923     24.708923     49.417846
     -4.009009     21.752938     21.752938     43.505876
     -3.998999     20.454555     20.454555     40.909109
     -3.988989     21.077318     21.077318     42.154635
     -3.978979     23.523412     23.523412     47.046823
     -3.968969     27.455824     27.455824     54.911648
     -3.958959     32.435093     32.435093     64.870186
     -3.948949     38.019619     38.019619     76.039237
     -3.938939     43.822754     43.822754     87.645508
     -3.928929     49.544861     49.544861     99.089722
     -3.918919     54.991029     54.991029    109.982058
     -3.908909     60.062522     60.062522    120.125043
     -3.898899     64.702511     64.702511    129.405022
     -3.888889     68.799203     68.799203    137.598406
     -3.878879     72.087559     72.087559    144.175119
     -3.868869     74.112910     74.112910    148.225820
     -3.858859     74.303344     74.303344    148.606688
     -3.848849     72.147022     72.147022    144.294044
     -3.838839     67.412883     67.412883    134.825766
     -3.828829     60.321054     60.321054    120.642109
     -3.818819     51.581365     51.581365    103.162730
     -3.808809     42.270024     42.270024     84.540047
     -3.798799     33.580702     33.580702     67.161404
     -3.788789     26.535075     26.535075     53.070151
     -3.778779     21.748297     21.748297     43.496593
     -3.768769     19.317277     19.317277     38.634555
     -3.758759     18.852562     18.852562     37.705123
     -3.748749     19.630638     19.630638     39.261276
     -3.738739     20.816445     20.816445     41.632889
     -3.728729     21.696919     21.696919     43.393838
     -3.718719     21.870254     21.870254     43.740508
     -3.708709     21.346800     21.346800     42.693599
     -3.698699     20.534611     20.534611     41.069223
     -3.688689     20.106187     20.106187     40.212373
     -3.678679     20.773084     20.773084     41.546168
     -3.668669     23.027569     23.027569     46.055139
     -3.658659     26.933891     26.933891     53.867782
     -3.648649     32.050094     32.050094     64.100187
     -3.638639     37.523097     37.523097     75.046193
     -3.628629     42.332087     42.332087     84.664173
     -3.618619     45.588623     45.588623     91.177246
     -3.608609     46.775622     46.775622     93.551245
     -3.598599     45.841176     45.841176     91.682352
     -3.588589     43.137089     43.137089     86.274178
     -3.578579     39.258811     39.258811     78.517623
     -3.568569     34.865148     34.865148     69.730296
     -3.558559     30.533256     30.533256     61.066512
     -3.548549     26.668781     26.668781     53.337563
     -3.538539     23.471863     23.471863     46.943726
     -3.528529     20.957844     20.957844     41.915689
     -3.518519     19.027048     19.027048     38.054096
     -3.508509     17.559270     17.559270     35.118541
     -3.498498     16.489297     16.489297     32.978593
     -3.488488     15.824146     15.824146     31.648291
     -3.478478     15.597474     15.597474     31.194947
     -3.468468     15.798339     15.798339     31.596677
     -3.458458     16.326696     16.326696     32.653391
     -3.448448     17.003975     17.003975     34.007951
     -3.438438     17.625161     17.625161     35.250321
     -3.428428     18.014589     18.014589     36.029178
     -3.418418     18.058562     18.058562     36.117124
     -3.408408     17.717704     17.717704     35.435408
     -3.398398     17.039086     17.039086     34.078173
     -3.388388     16.176530     16.176530     32.353060
     -3.378378     15.401977     15.401977     30.803954
     -3.368368     15.080280     15.080280     30.160559
     -3.358358     15.597204     15.597204     31.194408
     -3.348348     17.260508     17.260508     34.521017
     -3.338338     20.209492     20.209492     40.418984
     -3.328328     24.358275     24.358275     48.716549
     -3.318318     29.377367     29.377367     58.754734
     -3.308308     34.710101     34.710101     69.420202
     -3.298298     39.630207     39.630207     79.260414
     -3.288288     43.354130     43.354130     86.708260
     -3.278278     45.204307     45.204307     90.408615
     -3.268268     44.781523     44.781523     89.563046
     -3.258258     42.077821     42.077821     84.155642
     -3.248248     37.476228     37.476228     74.952457
     -3.238238     31.635854     31.635854     63.271708
     -3.228228     25.314449     25.314449     50.628898
     -3.218218     19.199723     19.199723     38.399446
     -3.208208     13.800371     13.800371     27.600741
     -3.198198      9.410933      9.410933     18.821866
     -3.188188      6.137065      6.137065     12.274130
     -3.178178      3.957896      3.957896      7.915793
     -3.168168      2.802637      2.802637      5.605274
     -3.158158      2.620073      2.620073      5.240146
     -3.148148      3.419888      3.419888      6.839775
     -3.138138      5.268054      5.268054     10.536108
     -3.128128      8.229751      8.229751     16.459501
     -3.118118     12.273428     12.273428     24.546855
     -3.108108     17.173110     17.173110     34.346220
     -3.098098     22.460515     22.460515     44.921030
     -3.088088     27.470115     27.470115     54.940231
     -3.078078     31.483706     31.483706     62.967413
     -3.068068     33.929035     33.929035     67.858069
     -3.058058     34.548534     34.548534     69.097068
     -3.048048     33.457847     33.457847     66.915694
     -3.038038     31.065468     31.065468     62.130937
     -3.028028     27.897854     27.897854     55.795707
     -3.018018     24.423397     24.423397     48.846794
     -3.008008     20.961556     20.961556     41.923112
     -2.997998     17.705622     17.705622     35.411244
     -2.987988     14.819074     14.819074     29.638149
     -2.977978     12.529908     12.529908     25.059816
     -2.967968     11.160729     11.160729     22.321459
     -2.957958     11.076193     11.076193     22.152387
     -2.947948     12.571459     12.571459     25.142918
     -2.937938     15.746332     15.746332     31.492664
     -2.927928     20.410975     20.410975     40.821950
     -2.917918     26.060260     26.060260     52.120519
     -2.907908     31.938856     31.938856     63.877712
     -2.897898     37.194704     37.194704     74.389407
     -2.887888     41.084937     41.084937     82.169874
     -2.877878     43.167956     43.167956     86.335912
     -2.867868     43.407495     43.407495     86.814991
     -2.857858     42.141665     42.141665     84.283331
     -2.847848     39.925195     39.925195     79.850390
     -2.837838     37.311049     37.311049     74.622099
     -2.827828     34.667119     34.667119     69.334238
     -2.817818     32.106366     32.106366     64.212733
     -2.807808     29.551133     29.551133     59.102265
     -2.797798     26.883958     26.883958     53.767915
     -2.787788     24.095361     24.095361     48.190722
     -2.777778     21.346719     21.346719     42.693437
     -2.767768     18.919006     18.919006     37.838011
     -2.757758     17.085424     17.085424     34.170848
     -2.747748     15.988873     15.988873     31.977745
     -2.737738     15.598690     15.598690     31.197381
     -2.727728     15.768667     15.768667     31.537333
     -2.717718     16.351893     16.351893     32.703786
     -2.707708     17.290169     17.290169     34.580337
     -2.697698     18.613286     18.613286     37.226573
     -2.687688     20.347898     20.347898     40.695797
     -2.677678     22.404343     22.404343     44.808685
     -2.667668     24.533058     24.533058     49.066115
     -2.657658     26.399009     26.399009     52.798018
     -2.647648     27.739496     27.739496     55.478992
     -2.637638     28.506554     28.506554     57.013107
     -2.627628     28.898432     28.898432     57.796864
     -2.617618     29.255414     29.255414     58.510828
     -2.607608     29.882769     29.882769     59.765538
     -2.597598     30.904723     30.904723     61.809446
     -2.587588     32.221575     32.221575     64.443149
     -2.577578     33.567724     33.567724     67.135447
     -2.567568     34.611367     34.611367     69.222734
     -2.557558     35.036136     35.036136     70.072272
     -2.547548     34.589153     34.589153     69.178306
     -2.537538     33.121078     33.121078     66.242157
     -2.527528     30.643309     30.643309     61.286617
     -2.517518     27.389849     27.389849     54.779698
     -2.507508     23.835990     23.835990     47.671981
     -2.497497     20.629140     20.629140     41.258280
     -2.487487     18.430723     18.430723     36.861445
     -2.477477     17.721290     17.721290     35.442579
     -2.467467     18.648589     18.648589     37.297178
     -2.457457     20.985341     20.985341     41.970683
     -2.447447     24.218678     24.218678     48.437357
     -2.437437     27.737798     27.737798     55.475597
     -2.427427     31.043171     31.043171     62.086342
     -2.417417     33.888072     33.888072     67.776145
     -2.407407     36.290126     36.290126     72.580253
     -2.397397     38.409122     38.409122     76.818244
     -2.387387     40.352581     40.352581     80.705161
     -2.377377     42.010261     42.010261     84.020523
     -2.367367     43.010441     43.010441     86.020883
     -2.357357     42.834264     42.834264     85.668527
     -2.347347     41.044598     41.044598     82.089196
     -2.337337     37.523236     37.523236     75.046472
     -2.327327     32.600643     32.600643     65.201287
     -2.317317     27.014192     27.014192     54.028384
     -2.307307     21.714988     21.714988     43.429976
     -2.297297     17.610988     17.610988     35.221976
     -2.287287     15.349016     15.349016     30.698033
     -2.277277     15.201483     15.201483     30.402967
     -2.267267     17.066848     17.066848     34.133697
     -2.257257     20.550785     20.550785     41.101570
     -2.247247     25.081958     25.081958     50.163916
     -2.237237     30.024858     30.024858     60.049715
     -2.227227     34.767887     34.767887     69.535774
     -2.217217     38.779471     38.779471     77.558942
     -2.207207     41.637338     41.637338     83.274675
     -2.197197     43.046073     43.046073     86.092145
     -2.187187     42.860942     42.860942     85.721884
     -2.177177     41.125609     41.125609     82.251219
     -2.167167     38.108656     38.108656     76.217312
     -2.157157     34.302615     34.302615     68.605230
     -2.147147     30.349997     30.349997     60.699994
     -2.137137     26.892823     26.892823     53.785647
     -2.127127     24.390178     24.390178     48.780357
     -2.117117     22.979338     22.979338     45.958677
     -2.107107     22.445050     22.445050     44.890101
     -2.097097     22.312632     22.312632     44.625264
     -2.087087     22.023980     22.023980     44.047961
     -2.077077     21.123864     21.123864     42.247728
     -2.067067     19.389281     19.389281     38.778561
     -2.057057     16.866670     16.866670     33.733341
     -2.047047     13.820150     13.820150     27.640301
     -2.037037     10.623102     10.623102     21.246203
     -2.027027      7.638217      7.638217     15.276433
     -2.017017      5.126766      5.126766     10.253532
     -2.007007      3.210096      3.210096      6.420193
     -1.996997      1.883357      1.883357      3.766714
     -1.986987      1.063388      1.063388      2.126775
     -1.976977      0.646356      0.646356      1.292712
     -1.966967      0.555606      0.555606      1.111213
     -1.956957      0.769658      0.769658      1.539317
     -1.946947      1.327607      1.327607      2.655214
     -1.936937      2.312212      2.312212      4.624423
     -1.926927      3.812703      3.812703      7.625407
     -1.916917      5.873931      5.873931     11.747862
     -1.906907      8.446205      8.446205     16.892410
     -1.896897     11.356007     11.356007     22.712013
     -1.886887     14.315043     14.315043     28.630086
     -1.876877     16.972081     16.972081     33.944162
     -1.866867     18.994610     18.994610     37.989221
     -1.856857     20.155048     20.155048     40.310095
     -1.846847     20.394057     20.394057     40.788114
     -1.836837     19.839597     19.839597     39.679193
     -1.826827     18.770618     18.770618     37.541237
     -1.816817     17.528868     17.528868     35.057736
     -1.806807     16.402277     16.402277     32.804554
     -1.796797     15.523081     15.523081     31.046161
     -1.786787     14.828167     14.828167     29.656333
     -1.776777     14.106323     14.106323     28.212645
     -1.766767     13.113514     13.113514     26.227028
     -1.756757     11.699185     11.699185     23.398371
     -1.746747      9.880848      9.880848     19.761697
     -1.736737      7.836114      7.836114     15.672227
     -1.726727      5.828973      5.828973     11.657945
     -1.716717      4.118701      4.118701      8.237402
     -1.706707      2.897633      2.897633      5.795266
     -1.696697      2.275471      2.275471      4.550942
     -1.686687      2.295405      2.295405      4.590811
     -1.676677      2.951667      2.951667      5.903335
     -1.666667      4.185777      4.185777      8.371554
     -1.656657      5.861957      5.861957     11.723914
     -1.646647      7.745520      7.745520     15.491041
     -1.636637      9.516306      9.516306     19.032613
     -1.626627     10.835159     10.835159     21.670318
