# EIG2DOS: Utility for SIESTA to obtain the electronic density of states
#  E. Artacho, Apr 1999, A. Garcia, Apr 2012
#  Nick R. Papior, Feb 2017
# ------------------------------------------
# Eigenvalues calculated from a non-polarized calculation
# Eigenvalues read from siesta.EIG
# Kpoint weights read from siesta.KP
# Using smearing parameter:   0.0500
# Using 1000 points in the energy range
# Selected bands: 1 to: 2981
# Emin, Emax in file for selected band(s):    -27.2542064    218.4017930
# Nbands, Nspin, Nk   =   2981     1     1
# E_F                 =    -4.1918 eV --> (shifted to ZERO)
# Broadening          =     0.0500 eV
#
#        E            N(up)  (=)   N(down)         Ntot
     -5.000000     31.657141     31.657141     63.314282
     -4.989990     36.881592     36.881592     73.763185
     -4.979980     41.820150     41.820150     83.640299
     -4.969970     45.602928     45.602928     91.205855
     -4.959960     47.502441     47.502441     95.004882
     -4.949950     47.177576     47.177576     94.355152
     -4.939940     44.791668     44.791668     89.583337
     -4.929930     40.972185     40.972185     81.944369
     -4.919920     36.651920     36.651920     73.303840
     -4.909910     32.864323     32.864323     65.728645
     -4.899900     30.547397     30.547397     61.094793
     -4.889890     30.371825     30.371825     60.743651
     -4.879880     32.592293     32.592293     65.184587
     -4.869870     36.942150     36.942150     73.884300
     -4.859860     42.624068     42.624068     85.248137
     -4.849850     48.449281     48.449281     96.898561
     -4.839840     53.125359     53.125359    106.250719
     -4.829830     55.612834     55.612834    111.225669
     -4.819820     55.417633     55.417633    110.835267
     -4.809810     52.700494     52.700494    105.400988
     -4.799800     48.163795     48.163795     96.327591
     -4.789790     42.776304     42.776304     85.552608
     -4.779780     37.460882     37.460882     74.921763
     -4.769770     32.867671     32.867671     65.735343
     -4.759760     29.295997     29.295997     58.591994
     -4.749750     26.752455     26.752455     53.504910
     -4.739740     25.080981     25.080981     50.161962
     -4.729730     24.090255     24.090255     48.180511
     -4.719720     23.626696     23.626696     47.253392
     -4.709710     23.578736     23.578736     47.157471
     -4.699700     23.833947     23.833947     47.667894
     -4.689690     24.233495     24.233495     48.466990
     -4.679680     24.569910     24.569910     49.139819
     -4.669670     24.651055     24.651055     49.302109
     -4.659660     24.413371     24.413371     48.826742
     -4.649650     24.029678     24.029678     48.059357
     -4.639640     23.941789     23.941789     47.883578
     -4.629630     24.767994     24.767994     49.535988
     -4.619620     27.087347     27.087347     54.174694
     -4.609610     31.168249     31.168249     62.336498
     -4.599600     36.757755     36.757755     73.515510
     -4.589590     43.048438     43.048438     86.096876
     -4.579580     48.876849     48.876849     97.753699
     -4.569570     53.101320     53.101320    106.202639
     -4.559560     55.009645     55.009645    110.019289
     -4.549550     54.577084     54.577084    109.154167
     -4.539540     52.456070     52.456070    104.912141
     -4.529530     49.701785     49.701785     99.403569
     -4.519520     47.356805     47.356805     94.713611
     -4.509510     46.073249     46.073249     92.146497
     -4.499499     45.920908     45.920908     91.841817
     -4.489489     46.438079     46.438079     92.876158
     -4.479479     46.876160     46.876160     93.752321
     -4.469469     46.516839     46.516839     93.033679
     -4.459459     44.928213     44.928213     89.856426
     -4.449449     42.071921     42.071921     84.143842
     -4.439439     38.250699     38.250699     76.501397
     -4.429429     33.956171     33.956171     67.912342
     -4.419419     29.707079     29.707079     59.414157
     -4.409409     25.947143     25.947143     51.894285
     -4.399399     23.016922     23.016922     46.033844
     -4.389389     21.162827     21.162827     42.325654
     -4.379379     20.532950     20.532950     41.065901
     -4.369369     21.139777     21.139777     42.279554
     -4.359359     22.816974     22.816974     45.633949
     -4.349349     25.221641     25.221641     50.443281
     -4.339339     27.913732     27.913732     55.827463
     -4.329329     30.494854     30.494854     60.989708
     -4.319319     32.745288     32.745288     65.490577
     -4.309309     34.690352     34.690352     69.380703
     -4.299299     36.557860     36.557860     73.115721
     -4.289289     38.637241     38.637241     77.274482
     -4.279279     41.093513     41.093513     82.187026
     -4.269269     43.811723     43.811723     87.623447
     -4.259259     46.344867     46.344867     92.689735
     -4.249249     48.008476     48.008476     96.016953
     -4.239239     48.109151     48.109151     96.218303
     -4.229229     46.227942     46.227942     92.455883
     -4.219219     42.436186     42.436186     84.872373
     -4.209209     37.335119     37.335119     74.670237
     -4.199199     31.886173     31.886173     63.772346
     -4.189189     27.099791     27.099791     54.199581
     -4.179179     23.718912     23.718912     47.437824
     -4.169169     22.030446     22.030446     44.060892
     -4.159159     21.869702     21.869702     43.739403
     -4.149149     22.790998     22.790998     45.581996
     -4.139139     24.309385     24.309385     48.618770
     -4.129129     26.099192     26.099192     52.198385
     -4.119119     28.064417     28.064417     56.128833
     -4.109109     30.257724     30.257724     60.515447
     -4.099099     32.697120     32.697120     65.394239
     -4.089089     35.185121     35.185121     70.370242
     -4.079079     37.245300     37.245300     74.490600
     -4.069069     38.238541     38.238541     76.477082
     -4.059059     37.623096     37.623096     75.246192
     -4.049049     35.232190     35.232190     70.464379
     -4.039039     31.420494     31.420494     62.840987
     -4.029029     26.996793     26.996793     53.993586
     -4.019019     22.974808     22.974808     45.949615
     -4.009009     20.264483     20.264483     40.528965
     -3.998999     19.439792     19.439792     38.879584
     -3.988989     20.659008     20.659008     41.318017
     -3.978979     23.727458     23.727458     47.454916
     -3.968969     28.234761     28.234761     56.469522
     -3.958959     33.692985     33.692985     67.385970
     -3.948949     39.635757     39.635757     79.271513
     -3.938939     45.676901     45.676901     91.353802
     -3.928929     51.542051     51.542051    103.084103
     -3.918919     57.075020     57.075020    114.150040
     -3.908909     62.204529     62.204529    124.409059
     -3.898899     66.862051     66.862051    133.724101
     -3.888889     70.872712     70.872712    141.745423
     -3.878879     73.875590     73.875590    147.751179
     -3.868869     75.335350     75.335350    150.670700
     -3.858859     74.670901     74.670901    149.341802
     -3.848849     71.465980     71.465980    142.931960
     -3.838839     65.677259     65.677259    131.354519
     -3.828829     57.746977     57.746977    115.493954
     -3.818819     48.563992     48.563992     97.127985
     -3.808809     39.279166     39.279166     78.558333
     -3.798799     31.037012     31.037012     62.074023
     -3.788789     24.711699     24.711699     49.423398
     -3.778779     20.725830     20.725830     41.451660
     -3.768769     18.995850     18.995850     37.991701
     -3.758759     19.006846     19.006846     38.013691
     -3.748749     19.986363     19.986363     39.972726
     -3.738739     21.127955     21.127955     42.255911
     -3.728729     21.809431     21.809431     43.618862
     -3.718719     21.754930     21.754930     43.509860
     -3.708709     21.101474     21.101474     42.202949
     -3.698699     20.348955     20.348955     40.697910
     -3.688689     20.197933     20.197933     40.395866
     -3.678679     21.310924     21.310924     42.621848
     -3.668669     24.063722     24.063722     48.127445
     -3.658659     28.370739     28.370739     56.741478
     -3.648649     33.656554     33.656554     67.313109
     -3.638639     38.998111     38.998111     77.996221
     -3.628629     43.392146     43.392146     86.784292
     -3.618619     46.045213     46.045213     92.090427
     -3.608609     46.574424     46.574424     93.148848
     -3.598599     45.054689     45.054689     90.109378
     -3.588589     41.923252     41.923252     83.846504
     -3.578579     37.807587     37.807587     75.615173
     -3.568569     33.350113     33.350113     66.700226
     -3.558559     29.073802     29.073802     58.147605
     -3.548549     25.300915     25.300915     50.601829
     -3.538539     22.125794     22.125794     44.251588
     -3.528529     19.445273     19.445273     38.890547
     -3.518519     17.045049     17.045049     34.090099
     -3.508509     14.718962     14.718962     29.437923
     -3.498498     12.376052     12.376052     24.752105
     -3.488488     10.090266     10.090266     20.180532
     -3.478478      8.074786      8.074786     16.149572
     -3.468468      6.599031      6.599031     13.198063
     -3.458458      5.887398      5.887398     11.774795
     -3.448448      6.036755      6.036755     12.073509
     -3.438438      6.975320      6.975320     13.950641
     -3.428428      8.473293      8.473293     16.946585
     -3.418418     10.208103     10.208103     20.416207
     -3.408408     11.875443     11.875443     23.750886
     -3.398398     13.315775     13.315775     26.631550
     -3.388388     14.604870     14.604870     29.209739
     -3.378378     16.056328     16.056328     32.112657
     -3.368368     18.115977     18.115977     36.231955
     -3.358358     21.180359     21.180359     42.360717
     -3.348348     25.412871     25.412871     50.825741
     -3.338338     30.633408     30.633408     61.266816
     -3.328328     36.319276     36.319276     72.638553
     -3.318318     41.704366     41.704366     83.408732
     -3.308308     45.934000     45.934000     91.868001
     -3.298298     48.235758     48.235758     96.471516
     -3.288288     48.082448     48.082448     96.164897
     -3.278278     45.325557     45.325557     90.651114
     -3.268268     40.263131     40.263131     80.526262
     -3.258258     33.601337     33.601337     67.202673
     -3.248248     26.298681     26.298681     52.597362
     -3.238238     19.337350     19.337350     38.674700
     -3.228228     13.507032     13.507032     27.014064
     -3.218218      9.278574      9.278574     18.557148
     -3.208208      6.792320      6.792320     13.584639
     -3.198198      5.928305      5.928305     11.856610
     -3.188188      6.401904      6.401904     12.803808
     -3.178178      7.846884      7.846884     15.693767
     -3.168168      9.883092      9.883092     19.766185
     -3.158158     12.184421     12.184421     24.368842
     -3.148148     14.549443     14.549443     29.098886
     -3.138138     16.947359     16.947359     33.894717
     -3.128128     19.497409     19.497409     38.994817
     -3.118118     22.363253     22.363253     44.726507
     -3.108108     25.596825     25.596825     51.193651
     -3.098098     29.012508     29.012508     58.025017
     -3.088088     32.173255     32.173255     64.346510
     -3.078078     34.515348     34.515348     69.030697
     -3.068068     35.558070     35.558070     71.116141
     -3.058058     35.090613     35.090613     70.181226
     -3.048048     33.238721     33.238721     66.477442
     -3.038038     30.383543     30.383543     60.767086
     -3.028028     26.990192     26.990192     53.980384
     -3.018018     23.448881     23.448881     46.897763
     -3.008008     20.010563     20.010563     40.021125
     -2.997998     16.831035     16.831035     33.662071
     -2.987988     14.071052     14.071052     28.142104
     -2.977978     11.975988     11.975988     23.951976
     -2.967968     10.882973     10.882973     21.765945
     -2.957958     11.149812     11.149812     22.299625
     -2.947948     13.036924     13.036924     26.073849
     -2.937938     16.587256     16.587256     33.174511
     -2.927928     21.545959     21.545959     43.091918
     -2.917918     27.351797     27.351797     54.703594
     -2.907908     33.217707     33.217707     66.435415
     -2.897898     38.294064     38.294064     76.588128
     -2.887888     41.875527     41.875527     83.751053
     -2.877878     43.583942     43.583942     87.167884
     -2.867868     43.454884     43.454884     86.909767
     -2.857858     41.885761     41.885761     83.771522
     -2.847848     39.461155     39.461155     78.922311
     -2.837838     36.728988     36.728988     73.457975
     -2.827828     34.026793     34.026793     68.053586
     -2.817818     31.432727     31.432727     62.865453
     -2.807808     28.851224     28.851224     57.702449
     -2.797798     26.173341     26.173341     52.346682
     -2.787788     23.416244     23.416244     46.832487
     -2.777778     20.765146     20.765146     41.530293
     -2.767768     18.502227     18.502227     37.004454
     -2.757758     16.874253     16.874253     33.748505
     -2.747748     15.984113     15.984113     31.968227
     -2.737738     15.771744     15.771744     31.543488
     -2.727728     16.089391     16.089391     32.178783
     -2.717718     16.813030     16.813030     33.626061
     -2.707708     17.907772     17.907772     35.815544
     -2.697698     19.398622     19.398622     38.797244
     -2.687688     21.268566     21.268566     42.537133
     -2.677678     23.364765     23.364765     46.729530
     -2.667668     25.395772     25.395772     50.791543
     -2.657658     27.041775     27.041775     54.083550
     -2.647648     28.116701     28.116701     56.233402
     -2.637638     28.676619     28.676619     57.353238
     -2.627628     28.998438     28.998438     57.996875
     -2.617618     29.436750     29.436750     58.873500
     -2.607608     30.244033     30.244033     60.488065
     -2.597598     31.455043     31.455043     62.910087
     -2.587588     32.884048     32.884048     65.768095
     -2.577578     34.208727     34.208727     68.417455
     -2.567568     35.074809     35.074809     70.149619
     -2.557558     35.172769     35.172769     70.345539
     -2.547548     34.285006     34.285006     68.570011
     -2.537538     32.330650     32.330650     64.661300
     -2.527528     29.421401     29.421401     58.842803
     -2.517518     25.903871     25.903871     51.807742
     -2.507508     22.342086     22.342086     44.684172
     -2.497497     19.412026     19.412026     38.824052
     -2.487487     17.727118     17.727118     35.454236
     -2.477477     17.656555     17.656555     35.313110
     -2.467467     19.210394     19.210394     38.420789
     -2.457457     22.041803     22.041803     44.083606
     -2.447447     25.570719     25.570719     51.141438
     -2.437437     29.183926     29.183926     58.367851
     -2.427427     32.432558     32.432558     64.865116
     -2.417417     35.144109     35.144109     70.288218
     -2.407407     37.398356     37.398356     74.796712
     -2.397397     39.376673     39.376673     78.753346
     -2.387387     41.157518     41.157518     82.315037
     -2.377377     42.565712     42.565712     85.131425
     -2.367367     43.166026     43.166026     86.332051
     -2.357357     42.423010     42.423010     84.846020
     -2.347347     39.959833     39.959833     79.919667
     -2.337337     35.789078     35.789078     71.578156
     -2.327327     30.397288     30.397288     60.794576
     -2.317317     24.640710     24.640710     49.281420
     -2.307307     19.505820     19.505820     39.011641
     -2.297297     15.845786     15.845786     31.691572
     -2.287287     14.194443     14.194443     28.388886
     -2.277277     14.701700     14.701700     29.403400
     -2.267267     17.173132     17.173132     34.346264
     -2.257257     21.165543     21.165543     42.331087
     -2.247247     26.093117     26.093117     52.186234
     -2.237237     31.318232     31.318232     62.636465
     -2.227227     36.219543     36.219543     72.439086
     -2.217217     40.240871     40.240871     80.481743
     -2.207207     42.929805     42.929805     85.859611
     -2.197197     43.976379     43.976379     87.952758
     -2.187187     43.257644     43.257644     86.515288
     -2.177177     40.880494     40.880494     81.760988
     -2.167167     37.197352     37.197352     74.394704
     -2.157157     32.761737     32.761737     65.523474
     -2.147147     28.208306     28.208306     56.416612
     -2.137137     24.083425     24.083425     48.166849
     -2.127127     20.693026     20.693026     41.386052
     -2.117117     18.041358     18.041358     36.082717
     -2.107107     15.893957     15.893957     31.787914
     -2.097097     13.932683     13.932683     27.865365
     -2.087087     11.923061     11.923061     23.846123
     -2.077077      9.815388      9.815388     19.630776
     -2.067067      7.746565      7.746565     15.493130
     -2.057057      5.964947      5.964947     11.929893
     -2.047047      4.729771      4.729771      9.459541
     -2.037037      4.228838      4.228838      8.457676
     -2.027027      4.529906      4.529906      9.059812
     -2.017017      5.559634      5.559634     11.119269
     -2.007007      7.103045      7.103045     14.206090
     -1.996997      8.828949      8.828949     17.657898
     -1.986987     10.353176     10.353176     20.706351
     -1.976977     11.338775     11.338775     22.677551
     -1.966967     11.606320     11.606320     23.212639
     -1.956957     11.208344     11.208344     22.416688
     -1.946947     10.427928     10.427928     20.855855
     -1.936937      9.692718      9.692718     19.385436
     -1.926927      9.434355      9.434355     18.868711
     -1.916917      9.946848      9.946848     19.893696
     -1.906907     11.295011     11.295011     22.590022
     -1.896897     13.300542     13.300542     26.601085
     -1.886887     15.602753     15.602753     31.205506
     -1.876877     17.766915     17.766915     35.533830
     -1.866867     19.403207     19.403207     38.806413
     -1.856857     20.263218     20.263218     40.526437
     -1.846847     20.292625     20.292625     40.585249
     -1.836837     19.630232     19.630232     39.260464
     -1.826827     18.552750     18.552750     37.105500
     -1.816817     17.375841     17.375841     34.751682
     -1.806807     16.339037     16.339037     32.678075
     -1.796797     15.518068     15.518068     31.036136
     -1.786787     14.806933     14.806933     29.613866
     -1.776777     13.983976     13.983976     27.967951
     -1.766767     12.832325     12.832325     25.664651
     -1.756757     11.253803     11.253803     22.507606
     -1.746747      9.319972      9.319972     18.639944
     -1.736737      7.242488      7.242488     14.484976
     -1.726727      5.290503      5.290503     10.581006
     -1.716717      3.705622      3.705622      7.411244
     -1.706707      2.653817      2.653817      5.307635
     -1.696697      2.221816      2.221816      4.443632
     -1.686687      2.436532      2.436532      4.873063
     -1.676677      3.277390      3.277390      6.554780
     -1.666667      4.664883      4.664883      9.329766
     -1.656657      6.433650      6.433650     12.867299
     -1.646647      8.318469      8.318469     16.636937
     -1.636637      9.983274      9.983274     19.966548
     -1.626627     11.102896     11.102896     22.205792
