# EIG2DOS: Utility for SIESTA to obtain the electronic density of states
#  E. Artacho, Apr 1999, A. Garcia, Apr 2012
#  Nick R. Papior, Feb 2017
# ------------------------------------------
# Eigenvalues calculated from a non-polarized calculation
# Eigenvalues read from siesta.EIG
# Kpoint weights read from siesta.KP
# Using smearing parameter:   0.0500
# Using 1000 points in the energy range
# Selected bands: 1 to: 2981
# Emin, Emax in file for selected band(s):    -27.0721711    218.3262860
# Nbands, Nspin, Nk   =   2981     1     1
# E_F                 =    -4.2822 eV --> (shifted to ZERO)
# Broadening          =     0.0500 eV
#
#        E            N(up)  (=)   N(down)         Ntot
     -5.000000     45.535637     45.535637     91.071273
     -4.989990     48.296411     48.296411     96.592823
     -4.979980     49.690493     49.690493     99.380986
     -4.969970     49.655951     49.655951     99.311901
     -4.959960     48.277286     48.277286     96.554571
     -4.949950     45.763904     45.763904     91.527809
     -4.939940     42.430572     42.430572     84.861145
     -4.929930     38.687251     38.687251     77.374502
     -4.919920     35.036272     35.036272     70.072544
     -4.909910     32.063446     32.063446     64.126892
     -4.899900     30.398078     30.398078     60.796156
     -4.889890     30.613163     30.613163     61.226327
     -4.879880     33.056199     33.056199     66.112397
     -4.869870     37.648861     37.648861     75.297721
     -4.859860     43.748807     43.748807     87.497614
     -4.849850     50.183783     50.183783    100.367566
     -4.839840     55.511932     55.511932    111.023864
     -4.829830     58.446300     58.446300    116.892601
     -4.819820     58.273379     58.273379    116.546758
     -4.809810     55.073435     55.073435    110.146870
     -4.799800     49.641481     49.641481     99.282962
     -4.789790     43.159997     43.159997     86.319995
     -4.779780     36.791139     36.791139     73.582279
     -4.769770     31.367869     31.367869     62.735738
     -4.759760     27.277748     27.277748     54.555496
     -4.749750     24.520247     24.520247     49.040494
     -4.739740     22.850431     22.850431     45.700863
     -4.729730     21.922001     21.922001     43.844001
     -4.719720     21.383959     21.383959     42.767918
     -4.709710     20.927791     20.927791     41.855582
     -4.699700     20.305195     20.305195     40.610389
     -4.689690     19.341053     19.341053     38.682105
     -4.679680     17.959114     17.959114     35.918227
     -4.669670     16.222637     16.222637     32.445274
     -4.659660     14.374049     14.374049     28.748099
     -4.649650     12.845825     12.845825     25.691650
     -4.639640     12.216951     12.216951     24.433901
     -4.629630     13.104211     13.104211     26.208423
     -4.619620     15.998150     15.998150     31.996301
     -4.609610     21.075829     21.075829     42.151658
     -4.599600     28.045625     28.045625     56.091250
     -4.589590     36.095739     36.095739     72.191479
     -4.579580     44.008690     44.008690     88.017379
     -4.569570     50.452375     50.452375    100.904749
     -4.559560     54.374259     54.374259    108.748519
     -4.549550     55.352569     55.352569    110.705137
     -4.539540     53.749202     53.749202    107.498404
     -4.529530     50.583341     50.583341    101.166681
     -4.519520     47.169098     47.169098     94.338195
     -4.509510     44.667515     44.667515     89.335029
     -4.499499     43.734820     43.734820     87.469640
     -4.489489     44.392432     44.392432     88.784864
     -4.479479     46.135460     46.135460     92.270920
     -4.469469     48.194399     48.194399     96.388797
     -4.459459     49.817451     49.817451     99.634901
     -4.449449     50.463007     50.463007    100.926015
     -4.439439     49.861466     49.861466     99.722931
     -4.429429     47.979683     47.979683     95.959365
     -4.419419     44.958942     44.958942     89.917883
     -4.409409     41.081435     41.081435     82.162871
     -4.399399     36.768073     36.768073     73.536146
     -4.389389     32.563176     32.563176     65.126351
     -4.379379     29.057248     29.057248     58.114496
     -4.369369     26.743244     26.743244     53.486488
     -4.359359     25.861537     25.861537     51.723073
     -4.349349     26.316922     26.316922     52.633844
     -4.339339     27.722787     27.722787     55.445574
     -4.329329     29.560395     29.560395     59.120790
     -4.319319     31.379848     31.379848     62.759696
     -4.309309     32.951774     32.951774     65.903548
     -4.299299     34.310402     34.310402     68.620805
     -4.289289     35.683095     35.683095     71.366190
     -4.279279     37.345130     37.345130     74.690261
     -4.269269     39.455945     39.455945     78.911889
     -4.259259     41.931291     41.931291     83.862582
     -4.249249     44.397923     44.397923     88.795846
     -4.239239     46.263095     46.263095     92.526190
     -4.229229     46.898196     46.898196     93.796393
     -4.219219     45.881944     45.881944     91.763887
     -4.209209     43.199732     43.199732     86.399464
     -4.199199     39.293628     39.293628     78.587256
     -4.189189     34.921720     34.921720     69.843440
     -4.179179     30.886116     30.886116     61.772232
     -4.169169     27.761757     27.761757     55.523515
     -4.159159     25.754192     25.754192     51.508385
     -4.149149     24.738234     24.738234     49.476468
     -4.139139     24.432596     24.432596     48.865192
     -4.129129     24.604511     24.604511     49.209022
     -4.119119     25.196997     25.196997     50.393993
     -4.109109     26.318506     26.318506     52.637012
     -4.099099     28.103703     28.103703     56.207407
     -4.089089     30.519460     30.519460     61.038921
     -4.079079     33.227259     33.227259     66.454519
     -4.069069     35.598837     35.598837     71.197674
     -4.059059     36.909590     36.909590     73.819181
     -4.049049     36.633176     36.633176     73.266353
     -4.039039     34.690636     34.690636     69.381271
     -4.029029     31.520056     31.520056     63.040111
     -4.019019     27.928458     27.928458     55.856916
     -4.009009     24.807116     24.807116     49.614231
     -3.998999     22.857388     22.857388     45.714777
     -3.988989     22.447482     22.447482     44.894963
     -3.978979     23.627804     23.627804     47.255609
     -3.968969     26.242052     26.242052     52.484104
     -3.958959     30.040540     30.040540     60.081079
     -3.948949     34.739551     34.739551     69.479102
     -3.938939     40.034247     40.034247     80.068493
     -3.928929     45.609259     45.609259     91.218517
     -3.918919     51.176309     51.176309    102.352619
     -3.908909     56.522762     56.522762    113.045523
     -3.898899     61.523444     61.523444    123.046889
     -3.888889     66.081082     66.081082    132.162164
     -3.878879     70.011598     70.011598    140.023197
     -3.868869     72.942653     72.942653    145.885307
     -3.858859     74.307666     74.307666    148.615332
     -3.848849     73.477970     73.477970    146.955939
     -3.838839     70.001123     70.001123    140.002247
     -3.828829     63.845606     63.845606    127.691213
     -3.818819     55.532481     55.532481    111.064962
     -3.808809     46.078313     46.078313     92.156626
     -3.798799     36.758553     36.758553     73.517106
     -3.788789     28.779829     28.779829     57.559658
     -3.778779     22.981946     22.981946     45.963893
     -3.768769     19.665751     19.665751     39.331502
     -3.758759     18.584293     18.584293     37.168586
     -3.748749     19.076756     19.076756     38.153512
     -3.738739     20.290198     20.290198     40.580395
     -3.728729     21.425234     21.425234     42.850468
     -3.718719     21.948044     21.948044     43.896087
     -3.708709     21.722745     21.722745     43.445491
     -3.698699     21.032840     21.032840     42.065681
     -3.688689     20.480735     20.480735     40.961470
     -3.678679     20.782935     20.782935     41.565870
     -3.668669     22.512430     22.512430     45.024860
     -3.658659     25.868178     25.868178     51.736356
     -3.648649     30.557477     30.557477     61.114955
     -3.638639     35.846481     35.846481     71.692962
     -3.628629     40.769910     40.769910     81.539820
     -3.618619     44.420331     44.420331     88.840662
     -3.608609     46.200591     46.200591     92.401182
     -3.598599     45.945912     45.945912     91.891825
     -3.588589     43.891976     43.891976     87.783952
     -3.578579     40.536373     40.536373     81.072747
     -3.568569     36.469907     36.469907     72.939815
     -3.558559     32.234903     32.234903     64.469807
     -3.548549     28.230488     28.230488     56.460976
     -3.538539     24.664122     24.664122     49.328245
     -3.528529     21.550735     21.550735     43.101471
     -3.518519     18.764680     18.764680     37.529360
     -3.508509     16.136167     16.136167     32.272334
     -3.498498     13.558559     13.558559     27.117119
     -3.488488     11.059998     11.059998     22.119996
     -3.478478      8.808030      8.808030     17.616060
     -3.468468      7.049890      7.049890     14.099780
     -3.458458      6.019490      6.019490     12.038981
     -3.448448      5.848815      5.848815     11.697631
     -3.438438      6.510658      6.510658     13.021315
     -3.428428      7.806423      7.806423     15.612845
     -3.418418      9.405035      9.405035     18.810070
     -3.408408     10.931231     10.931231     21.862461
     -3.398398     12.085405     12.085405     24.170810
     -3.388388     12.756181     12.756181     25.512362
     -3.378378     13.077369     13.077369     26.154738
     -3.368368     13.397570     13.397570     26.795140
     -3.358358     14.169166     14.169166     28.338333
     -3.348348     15.800347     15.800347     31.600695
     -3.338338     18.524284     18.524284     37.048567
     -3.328328     22.319336     22.319336     44.638673
     -3.318318     26.883985     26.883985     53.767969
     -3.308308     31.657156     31.657156     63.314311
     -3.298298     35.885726     35.885726     71.771452
     -3.288288     38.754015     38.754015     77.508031
     -3.278278     39.575509     39.575509     79.151018
     -3.268268     38.001637     38.001637     76.003274
     -3.258258     34.160966     34.160966     68.321931
     -3.248248     28.649186     28.649186     57.298373
     -3.238238     22.356058     22.356058     44.712116
     -3.228228     16.200126     16.200126     32.400251
     -3.218218     10.887024     10.887024     21.774048
     -3.208208      6.784013      6.784013     13.568025
     -3.198198      3.934347      3.934347      7.868695
     -3.188188      2.169542      2.169542      4.339085
     -3.178178      1.251357      1.251357      2.502713
     -3.168168      0.989581      0.989581      1.979163
     -3.158158      1.312561      1.312561      2.625123
     -3.148148      2.290173      2.290173      4.580346
     -3.138138      4.114504      4.114504      8.229008
     -3.128128      7.038849      7.038849     14.077699
     -3.118118     11.274909     11.274909     22.549819
     -3.108108     16.861018     16.861018     33.722036
     -3.098098     23.538980     23.538980     47.077960
     -3.088088     30.698314     30.698314     61.396628
     -3.078078     37.442921     37.442921     74.885842
     -3.068068     42.793597     42.793597     85.587194
     -3.058058     45.971509     45.971509     91.943018
     -3.048048     46.649629     46.649629     93.299258
     -3.038038     45.053914     45.053914     90.107829
     -3.028028     41.859413     41.859413     83.718825
     -3.018018     37.928159     37.928159     75.856319
     -3.008008     34.014912     34.014912     68.029824
     -2.997998     30.574890     30.574890     61.149781
     -2.987988     27.743600     27.743600     55.487201
     -2.977978     25.466217     25.466217     50.932435
     -2.967968     23.686222     23.686222     47.372444
     -2.957958     22.488456     22.488456     44.976911
     -2.947948     22.125784     22.125784     44.251568
     -2.937938     22.918045     22.918045     45.836090
     -2.927928     25.071596     25.071596     50.143193
     -2.917918     28.506305     28.506305     57.012610
     -2.907908     32.778865     32.778865     65.557731
     -2.897898     37.152848     37.152848     74.305697
     -2.887888     40.800473     40.800473     81.600946
     -2.877878     43.058050     43.058050     86.116100
     -2.867868     43.627954     43.627954     87.255908
     -2.857858     42.641195     42.641195     85.282390
     -2.847848     40.557243     40.557243     81.114486
     -2.837838     37.951604     37.951604     75.903208
     -2.827828     35.290597     35.290597     70.581194
     -2.817818     32.793226     32.793226     65.586453
     -2.807808     30.432373     30.432373     60.864746
     -2.797798     28.056320     28.056320     56.112640
     -2.787788     25.553201     25.553201     51.106402
     -2.777778     22.965222     22.965222     45.930444
     -2.767768     20.493911     20.493911     40.987821
     -2.757758     18.402846     18.402846     36.805693
     -2.747748     16.883638     16.883638     33.767275
     -2.737738     15.970294     15.970294     31.940589
     -2.727728     15.554697     15.554697     31.109393
     -2.717718     15.490408     15.490408     30.980815
     -2.707708     15.713755     15.713755     31.427509
     -2.697698     16.297730     16.297730     32.595461
     -2.687688     17.396769     17.396769     34.793538
     -2.677678     19.113464     19.113464     38.226929
     -2.667668     21.374516     21.374516     42.749031
     -2.657658     23.903411     23.903411     47.806822
     -2.647648     26.317997     26.317997     52.635995
     -2.637638     28.299293     28.299293     56.598587
     -2.627628     29.729116     29.729116     59.458232
     -2.617618     30.713612     30.713612     61.427224
     -2.607608     31.485197     31.485197     62.970395
     -2.597598     32.252655     32.252655     64.505309
     -2.587588     33.092554     33.092554     66.185108
     -2.577578     33.931670     33.931670     67.863341
     -2.567568     34.599945     34.599945     69.199889
     -2.557558     34.895419     34.895419     69.790839
     -2.547548     34.622218     34.622218     69.244436
     -2.537538     33.612084     33.612084     67.224169
     -2.527528     31.766381     31.766381     63.532761
     -2.517518     29.131939     29.131939     58.263878
     -2.507508     25.974109     25.974109     51.948218
     -2.497497     22.783143     22.783143     45.566287
     -2.487487     20.174921     20.174921     40.349841
     -2.477477     18.708487     18.708487     37.416974
     -2.467467     18.697412     18.697412     37.394824
     -2.457457     20.103681     20.103681     40.207361
     -2.447447     22.566450     22.566450     45.132900
     -2.437437     25.555032     25.555032     51.110064
     -2.427427     28.577552     28.577552     57.155105
     -2.417417     31.350115     31.350115     62.700230
     -2.407407     33.848386     33.848386     67.696772
     -2.397397     36.218155     36.218155     72.436309
     -2.387387     38.589932     38.589932     77.179864
     -2.377377     40.892758     40.892758     81.785516
     -2.367367     42.768548     42.768548     85.537097
     -2.357357     43.644572     43.644572     87.289144
     -2.347347     42.945840     42.945840     85.891680
     -2.337337     40.356911     40.356911     80.713822
     -2.327327     36.011925     36.011925     72.023850
     -2.317317     30.522039     30.522039     61.044077
     -2.307307     24.826611     24.826611     49.653223
     -2.297297     19.935196     19.935196     39.870392
     -2.287287     16.667069     16.667069     33.334137
     -2.277277     15.477943     15.477943     30.955886
     -2.267267     16.410560     16.410560     32.821120
     -2.257257     19.153367     19.153367     38.306735
     -2.247247     23.163205     23.163205     46.326409
     -2.237237     27.804193     27.804193     55.608385
     -2.227227     32.464305     32.464305     64.928609
     -2.217217     36.625680     36.625680     73.251361
     -2.207207     39.884293     39.884293     79.768585
     -2.197197     41.937505     41.937505     83.875011
     -2.187187     42.574124     42.574124     85.148249
     -2.177177     41.696483     41.696483     83.392966
     -2.167167     39.374121     39.374121     78.748242
     -2.157157     35.890414     35.890414     71.780827
     -2.147147     31.727211     31.727211     63.454422
     -2.137137     27.458494     27.458494     54.916989
     -2.127127     23.581577     23.581577     47.163153
     -2.117117     20.364178     20.364178     40.728356
     -2.107107     17.788414     17.788414     35.576827
     -2.097097     15.621442     15.621442     31.242884
     -2.087087     13.570619     13.570619     27.141238
     -2.077077     11.437137     11.437137     22.874275
     -2.067067      9.193144      9.193144     18.386287
     -2.057057      6.960258      6.960258     13.920516
     -2.047047      4.923243      4.923243      9.846486
     -2.037037      3.237184      3.237184      6.474369
     -2.027027      1.973136      1.973136      3.946271
     -2.017017      1.114197      1.114197      2.228395
     -2.007007      0.586280      0.586280      1.172560
     -1.996997      0.298652      0.298652      0.597304
     -1.986987      0.176399      0.176399      0.352797
     -1.976977      0.179283      0.179283      0.358566
     -1.966967      0.309923      0.309923      0.619845
     -1.956957      0.615429      0.615429      1.230859
     -1.946947      1.182805      1.182805      2.365610
     -1.936937      2.124039      2.124039      4.248078
     -1.926927      3.546482      3.546482      7.092965
     -1.916917      5.509894      5.509894     11.019788
     -1.906907      7.981533      7.981533     15.963066
     -1.896897     10.808515     10.808515     21.617030
     -1.886887     13.725225     13.725225     27.450451
     -1.876877     16.401035     16.401035     32.802069
     -1.866867     18.516229     18.516229     37.032457
     -1.856857     19.842134     19.842134     39.684268
     -1.846847     20.300367     20.300367     40.600734
     -1.836837     19.983067     19.983067     39.966134
     -1.826827     19.125131     19.125131     38.250263
     -1.816817     18.030220     18.030220     36.060441
     -1.806807     16.968168     16.968168     33.936336
     -1.796797     16.080238     16.080238     32.160476
     -1.786787     15.337079     15.337079     30.674159
     -1.776777     14.577715     14.577715     29.155430
     -1.766767     13.617842     13.617842     27.235684
     -1.756757     12.375002     12.375002     24.750003
     -1.746747     10.945063     10.945063     21.890126
     -1.736737      9.589508      9.589508     19.179017
     -1.726727      8.640035      8.640035     17.280071
     -1.716717      8.367205      8.367205     16.734409
     -1.706707      8.873039      8.873039     17.746079
     -1.696697     10.052270     10.052270     20.104539
     -1.686687     11.634596     11.634596     23.269193
     -1.676677     13.285013     13.285013     26.570026
     -1.666667     14.713938     14.713938     29.427876
     -1.656657     15.745772     15.745772     31.491544
     -1.646647     16.319034     16.319034     32.638069
     -1.636637     16.433206     16.433206     32.866412
     -1.626627     16.090853     16.090853     32.181706
