# EIG2DOS: Utility for SIESTA to obtain the electronic density of states
#  E. Artacho, Apr 1999, A. Garcia, Apr 2012
#  Nick R. Papior, Feb 2017
# ------------------------------------------
# Eigenvalues calculated from a non-polarized calculation
# Eigenvalues read from siesta.EIG
# Kpoint weights read from siesta.KP
# Using smearing parameter:   0.0500
# Using 1000 points in the energy range
# Selected bands: 1 to: 2981
# Emin, Emax in file for selected band(s):    -27.0308073    218.3146220
# Nbands, Nspin, Nk   =   2981     1     1
# E_F                 =    -4.2932 eV --> (shifted to ZERO)
# Broadening          =     0.0500 eV
#
#        E            N(up)  (=)   N(down)         Ntot
     -5.000000     45.461264     45.461264     90.922527
     -4.989990     48.083783     48.083783     96.167566
     -4.979980     49.377383     49.377383     98.754766
     -4.969970     49.299219     49.299219     98.598439
     -4.959960     47.935658     47.935658     95.871316
     -4.949950     45.483205     45.483205     90.966411
     -4.939940     42.236034     42.236034     84.472069
     -4.929930     38.583445     38.583445     77.166891
     -4.919920     35.012137     35.012137     70.024273
     -4.909910     32.098941     32.098941     64.197882
     -4.899900     30.469891     30.469891     60.939782
     -4.889890     30.698524     30.698524     61.397047
     -4.879880     33.135174     33.135174     66.270348
     -4.869870     37.705927     37.705927     75.411854
     -4.859860     43.774116     43.774116     87.548232
     -4.849850     50.173931     50.173931    100.347862
     -4.839840     55.469740     55.469740    110.939479
     -4.829830     58.379396     58.379396    116.758791
     -4.819820     58.191979     58.191979    116.383958
     -4.809810     54.988137     54.988137    109.976275
     -4.799800     49.561746     49.561746     99.123492
     -4.789790     43.093434     43.093434     86.186869
     -4.779780     36.743284     36.743284     73.486568
     -4.769770     31.342146     31.342146     62.684292
     -4.759760     27.275637     27.275637     54.551275
     -4.749750     24.541749     24.541749     49.083499
     -4.739740     22.894633     22.894633     45.789266
     -4.729730     21.987215     21.987215     43.974430
     -4.719720     21.467137     21.467137     42.934274
     -4.709710     21.023585     21.023585     42.047169
     -4.699700     20.405538     20.405538     40.811076
     -4.689690     19.435837     19.435837     38.871674
     -4.679680     18.037617     18.037617     36.075233
     -4.669670     16.274621     16.274621     32.549242
     -4.659660     14.389585     14.389585     28.779170
     -4.649650     12.813929     12.813929     25.627857
     -4.639640     12.124431     12.124431     24.248861
     -4.629630     12.936789     12.936789     25.873578
     -4.619620     15.745318     15.745318     31.490637
     -4.609610     20.738904     20.738904     41.477808
     -4.599600     27.645744     27.645744     55.291488
     -4.589590     35.676704     35.676704     71.353409
     -4.579580     43.630325     43.630325     87.260649
     -4.569570     50.174050     50.174050    100.348100
     -4.559560     54.233920     54.233920    108.467840
     -4.549550     55.350483     55.350483    110.700966
     -4.539540     53.844641     53.844641    107.689283
     -4.529530     50.706108     50.706108    101.412216
     -4.519520     47.239491     47.239491     94.478982
     -4.509510     44.612902     44.612902     89.225804
     -4.499499     43.492346     43.492346     86.984692
     -4.489489     43.895867     43.895867     87.791734
     -4.479479     45.296382     45.296382     90.592764
     -4.469469     46.897444     46.897444     93.794887
     -4.459459     47.949051     47.949051     95.898102
     -4.449449     47.978337     47.978337     95.956675
     -4.439439     46.868320     46.868320     93.736640
     -4.429429     44.793942     44.793942     89.587885
     -4.419419     42.083114     42.083114     84.166229
     -4.409409     39.087029     39.087029     78.174058
     -4.399399     36.114770     36.114770     72.229539
     -4.389389     33.432210     33.432210     66.864420
     -4.379379     31.280332     31.280332     62.560664
     -4.369369     29.863418     29.863418     59.726837
     -4.359359     29.294669     29.294669     58.589338
     -4.349349     29.535081     29.535081     59.070162
     -4.339339     30.381005     30.381005     60.762009
     -4.329329     31.529707     31.529707     63.059414
     -4.319319     32.700531     32.700531     65.401063
     -4.309309     33.750955     33.750955     67.501911
     -4.299299     34.728021     34.728021     69.456043
     -4.289289     35.830252     35.830252     71.660504
     -4.279279     37.296447     37.296447     74.592895
     -4.269269     39.263711     39.263711     78.527422
     -4.259259     41.645454     41.645454     83.290908
     -4.249249     44.078934     44.078934     88.157867
     -4.239239     45.980878     45.980878     91.961755
     -4.229229     46.718097     46.718097     93.436195
     -4.219219     45.845394     45.845394     91.690788
     -4.209209     43.310548     43.310548     86.621097
     -4.199199     39.518173     39.518173     79.036345
     -4.189189     35.203529     35.203529     70.407058
     -4.179179     31.167656     31.167656     62.335313
     -4.169169     28.002651     28.002651     56.005303
     -4.159159     25.938374     25.938374     51.876749
     -4.149149     24.869354     24.869354     49.738709
     -4.139139     24.522934     24.522934     49.045869
     -4.129129     24.664513     24.664513     49.329026
     -4.119119     25.230403     25.230403     50.460807
     -4.109109     26.324090     26.324090     52.648179
     -4.099099     28.081221     28.081221     56.162442
     -4.089089     30.475759     30.475759     60.951518
     -4.079079     33.178751     33.178751     66.357502
     -4.069069     35.568525     35.568525     71.137051
     -4.059059     36.919657     36.919657     73.839314
     -4.049049     36.696569     36.696569     73.393138
     -4.039039     34.805697     34.805697     69.611394
     -4.029029     31.670623     31.670623     63.341247
     -4.019019     28.088972     28.088972     56.177944
     -4.009009     24.950007     24.950007     49.900014
     -3.998999     22.959610     22.959610     45.919221
     -3.988989     22.494363     22.494363     44.988726
     -3.978979     23.614120     23.614120     47.228239
     -3.968969     26.171093     26.171093     52.342187
     -3.958959     29.921812     29.921812     59.843624
     -3.948949     34.585193     34.585193     69.170386
     -3.938939     39.854345     39.854345     79.708690
     -3.928929     45.407209     45.407209     90.814419
     -3.918919     50.946660     50.946660    101.893320
     -3.908909     56.254310     56.254310    112.508621
     -3.898899     61.208606     61.208606    122.417211
     -3.888889     65.728735     65.728735    131.457471
     -3.878879     69.656708     69.656708    139.313416
     -3.868869     72.645061     72.645061    145.290122
     -3.858859     74.136691     74.136691    148.273381
     -3.848849     73.487471     73.487471    146.974942
     -3.838839     70.206531     70.206531    140.413063
     -3.828829     64.214908     64.214908    128.429816
     -3.818819     55.996117     55.996117    111.992234
     -3.808809     46.552823     46.552823     93.105647
     -3.798799     37.172277     37.172277     74.344554
     -3.788789     29.089785     29.089785     58.179569
     -3.778779     23.177466     23.177466     46.354932
     -3.768769     19.761480     19.761480     39.522960
     -3.758759     18.608615     18.608615     37.217230
     -3.748749     19.060939     19.060939     38.121878
     -3.738739     20.260709     20.260709     40.521418
     -3.728729     21.399253     21.399253     42.798507
     -3.718719     21.931357     21.931357     43.862714
     -3.708709     21.709594     21.709594     43.419189
     -3.698699     21.007929     21.007929     42.015858
     -3.688689     20.423774     20.423774     40.847547
     -3.678679     20.675483     20.675483     41.350967
     -3.668669     22.345627     22.345627     44.691254
     -3.658659     25.648804     25.648804     51.297608
     -3.648649     30.309544     30.309544     60.619087
     -3.638639     35.606797     35.606797     71.213595
     -3.628629     40.578605     40.578605     81.157210
     -3.618619     44.309828     44.309828     88.619656
     -3.608609     46.187429     46.187429     92.374857
     -3.598599     46.028324     46.028324     92.056648
     -3.588589     44.053193     44.053193     88.106386
     -3.578579     40.751113     40.751113     81.502226
     -3.568569     36.710907     36.710907     73.421813
     -3.558559     32.477554     32.477554     64.955109
     -3.548549     28.455331     28.455331     56.910662
     -3.538539     24.857890     24.857890     49.715780
     -3.528529     21.706568     21.706568     43.413135
     -3.518519     18.881665     18.881665     37.763330
     -3.508509     16.218148     16.218148     32.436295
     -3.498498     13.612355     13.612355     27.224709
     -3.488488     11.093491     11.093491     22.186982
     -3.478478      8.828614      8.828614     17.657229
     -3.468468      7.063548      7.063548     14.127095
     -3.458458      6.030445      6.030445     12.060889
     -3.448448      5.859534      5.859534     11.719068
     -3.438438      6.522000      6.522000     13.044000
     -3.428428      7.817876      7.817876     15.635752
     -3.418418      9.415081      9.415081     18.830162
     -3.408408     10.937855     10.937855     21.875710
     -3.398398     12.086594     12.086594     24.173188
     -3.388388     12.750104     12.750104     25.500209
     -3.378378     13.061971     13.061971     26.123942
     -3.368368     13.369575     13.369575     26.739150
     -3.358358     14.122997     14.122997     28.245994
     -3.348348     15.727893     15.727893     31.455785
     -3.338338     18.416549     18.416549     36.833098
     -3.328328     22.170401     22.170401     44.340802
     -3.318318     26.696394     26.696394     53.392788
     -3.308308     31.446369     31.446369     62.892738
     -3.298298     35.680556     35.680556     71.361111
     -3.288288     38.591078     38.591078     77.182157
     -3.278278     39.488592     39.488592     78.977184
     -3.268268     38.010076     38.010076     76.020153
     -3.258258     34.262456     34.262456     68.524911
     -3.248248     28.820629     28.820629     57.641258
     -3.238238     22.561983     22.561983     45.123967
     -3.228228     16.404455     16.404455     32.808909
     -3.218218     11.062807     11.062807     22.125613
     -3.208208      6.917606      6.917606     13.835213
     -3.198198      4.023634      4.023634      8.047268
     -3.188188      2.218026      2.218026      4.436053
     -3.178178      1.260200      1.260200      2.520400
     -3.168168      0.948215      0.948215      1.896430
     -3.158158      1.186816      1.186816      2.373631
     -3.148148      2.006412      2.006412      4.012823
     -3.138138      3.540230      3.540230      7.080461
     -3.128128      5.965153      5.965153     11.930306
     -3.118118      9.412851      9.412851     18.825702
     -3.108108     13.869074     13.869074     27.738148
     -3.098098     19.096042     19.096042     38.192085
     -3.088088     24.621451     24.621451     49.242901
     -3.078078     29.822145     29.822145     59.644290
     -3.068068     34.088460     34.088460     68.176920
     -3.058058     37.005072     37.005072     74.010144
     -3.048048     38.459890     38.459890     76.919780
     -3.038038     38.620303     38.620303     77.240605
     -3.028028     37.790013     37.790013     75.580025
     -3.018018     36.235602     36.235602     72.471203
     -3.008008     34.094927     34.094927     68.189854
     -2.997998     31.426415     31.426415     62.852829
     -2.987988     28.361868     28.361868     56.723737
     -2.977978     25.252451     25.252451     50.504902
     -2.967968     22.698034     22.698034     45.396068
     -2.957958     21.419960     21.419960     42.839920
     -2.947948     22.026284     22.026284     44.052567
     -2.937938     24.772946     24.772946     49.545892
     -2.927928     29.422413     29.422413     58.844826
     -2.917918     35.256825     35.256825     70.513651
     -2.907908     41.243474     41.243474     82.486947
     -2.897898     46.299085     46.299085     92.598171
     -2.887888     49.568861     49.568861     99.137722
     -2.877878     50.632795     50.632795    101.265590
     -2.867868     49.576390     49.576390     99.152780
     -2.857858     46.908278     46.908278     93.816555
     -2.847848     43.358778     43.358778     86.717556
     -2.837838     39.633486     39.633486     79.266972
     -2.827828     36.210168     36.210168     72.420336
     -2.817818     33.249034     33.249034     66.498068
     -2.807808     30.640192     30.640192     61.280384
     -2.797798     28.154448     28.154448     56.308896
     -2.787788     25.619425     25.619425     51.238850
     -2.777778     23.034701     23.034701     46.069402
     -2.767768     20.574224     20.574224     41.148449
     -2.757758     18.485921     18.485921     36.971841
     -2.747748     16.954613     16.954613     33.909226
     -2.737738     16.012940     16.012940     32.025881
     -2.727728     15.553438     15.553438     31.106877
     -2.717718     15.430438     15.430438     30.860875
     -2.707708     15.581847     15.581847     31.163694
     -2.697698     16.085941     16.085941     32.171882
     -2.687688     17.108918     17.108918     34.217835
     -2.677678     18.771297     18.771297     37.542594
     -2.667668     21.018778     21.018778     42.037556
     -2.657658     23.586469     23.586469     47.172938
     -2.647648     26.089003     26.089003     52.178006
     -2.637638     28.187812     28.187812     56.375624
     -2.627628     29.735094     29.735094     59.470188
     -2.617618     30.808744     30.808744     61.617489
     -2.607608     31.624666     31.624666     63.249333
     -2.597598     32.391033     32.391033     64.782065
     -2.587588     33.196779     33.196779     66.393559
     -2.577578     33.987362     33.987362     67.974724
     -2.567568     34.611610     34.611610     69.223220
     -2.557558     34.882993     34.882993     69.765986
     -2.547548     34.615424     34.615424     69.230848
     -2.537538     33.642649     33.642649     67.285297
     -2.527528     31.858511     31.858511     63.717023
     -2.517518     29.293539     29.293539     58.587077
     -2.507508     26.192532     26.192532     52.385064
     -2.497497     23.028001     23.028001     46.056001
     -2.487487     20.406969     20.406969     40.813938
     -2.477477     18.890516     18.890516     37.781032
     -2.467467     18.802505     18.802505     37.605010
     -2.457457     20.118404     20.118404     40.236809
     -2.447447     22.489597     22.489597     44.979193
     -2.437437     25.394492     25.394492     50.788984
     -2.427427     28.347804     28.347804     56.695609
     -2.417417     31.071258     31.071258     62.142516
     -2.407407     33.545953     33.545953     67.091907
     -2.397397     35.922255     35.922255     71.844510
     -2.387387     38.332843     38.332843     76.665686
     -2.377377     40.705198     40.705198     81.410395
     -2.367367     42.675512     42.675512     85.351025
     -2.357357     43.661444     43.661444     87.322889
     -2.347347     43.075086     43.075086     86.150173
     -2.337337     40.585877     40.585877     81.171754
     -2.327327     36.312962     36.312962     72.625924
     -2.317317     30.856350     30.856350     61.712700
     -2.307307     25.151923     25.151923     50.303845
     -2.297297     20.215178     20.215178     40.430356
     -2.287287     16.878918     16.878918     33.757836
     -2.277277     15.614993     15.614993     31.229985
     -2.267267     16.479129     16.479129     32.958258
     -2.257257     19.165908     19.165908     38.331815
     -2.247247     23.131584     23.131584     46.263169
     -2.237237     27.736638     27.736638     55.473277
     -2.227227     32.367234     32.367234     64.734468
     -2.217217     36.508521     36.508521     73.017042
     -2.207207     39.763296     39.763296     79.526591
     -2.197197     41.835004     41.835004     83.670008
     -2.187187     42.512610     42.512610     85.025220
     -2.177177     41.690376     41.690376     83.380753
     -2.167167     39.423832     39.423832     78.847665
     -2.157157     35.982091     35.982091     71.964182
     -2.147147     31.838389     31.838389     63.676777
     -2.137137     27.566773     27.566773     55.133546
     -2.127127     23.672219     23.672219     47.344437
     -2.117117     20.433466     20.433466     40.866931
     -2.107107     17.841975     17.841975     35.683949
     -2.097097     15.669138     15.669138     31.338276
     -2.087087     13.620887     13.620887     27.241774
     -2.077077     11.493389     11.493389     22.986779
     -2.067067      9.253342      9.253342     18.506684
     -2.057057      7.019047      7.019047     14.038093
     -2.047047      4.974961      4.974961      9.949923
     -2.037037      3.278152      3.278152      6.556305
     -2.027027      2.002446      2.002446      4.004891
     -2.017017      1.133203      1.133203      2.266405
     -2.007007      0.597479      0.597479      1.194957
     -1.996997      0.304649      0.304649      0.609297
     -1.986987      0.179283      0.179283      0.358566
     -1.976977      0.180433      0.180433      0.360866
     -1.966967      0.310068      0.310068      0.620136
     -1.956957      0.614794      0.614794      1.229588
     -1.946947      1.181222      1.181222      2.362444
     -1.936937      2.121007      2.121007      4.242013
     -1.926927      3.541197      3.541197      7.082394
     -1.916917      5.501321      5.501321     11.002641
     -1.906907      7.968605      7.968605     15.937211
     -1.896897     10.790530     10.790530     21.581060
     -1.886887     13.702408     13.702408     27.404816
     -1.876877     16.375109     16.375109     32.750218
     -1.866867     18.490694     18.490694     36.981388
     -1.856857     19.821916     19.821916     39.643832
     -1.846847     20.290721     20.290721     40.581443
     -1.836837     19.987964     19.987964     39.975928
     -1.826827     19.145643     19.145643     38.291286
     -1.816817     18.063415     18.063415     36.126829
     -1.806807     17.006547     17.006547     34.013094
     -1.796797     16.110902     16.110902     32.221804
     -1.786787     15.338867     15.338867     30.677733
     -1.776777     14.513962     14.513962     29.027925
     -1.766767     13.422869     13.422869     26.845738
     -1.756757     11.934933     11.934933     23.869865
     -1.746747     10.079032     10.079032     20.158065
     -1.736737      8.044764      8.044764     16.089529
     -1.726727      6.120105      6.120105     12.240210
     -1.716717      4.609068      4.609068      9.218136
     -1.706707      3.771151      3.771151      7.542302
     -1.696697      3.795977      3.795977      7.591954
     -1.686687      4.795659      4.795659      9.591317
     -1.676677      6.786758      6.786758     13.573516
     -1.666667      9.649812      9.649812     19.299624
     -1.656657     13.085010     13.085010     26.170021
     -1.646647     16.605292     16.605292     33.210584
     -1.636637     19.603786     19.603786     39.207572
     -1.626627     21.498327     21.498327     42.996655
