# EIG2DOS: Utility for SIESTA to obtain the electronic density of states
#  E. Artacho, Apr 1999, A. Garcia, Apr 2012
#  Nick R. Papior, Feb 2017
# ------------------------------------------
# Eigenvalues calculated from a non-polarized calculation
# Eigenvalues read from siesta.EIG
# Kpoint weights read from siesta.KP
# Using smearing parameter:   0.0500
# Using 1000 points in the energy range
# Selected bands: 1 to: 2981
# Emin, Emax in file for selected band(s):    -27.2547904    218.3799050
# Nbands, Nspin, Nk   =   2981     1     1
# E_F                 =    -4.2167 eV --> (shifted to ZERO)
# Broadening          =     0.0500 eV
#
#        E            N(up)  (=)   N(down)         Ntot
     -5.000000     32.111055     32.111055     64.222109
     -4.989990     36.899345     36.899345     73.798691
     -4.979980     41.343509     41.343509     82.687019
     -4.969970     44.698364     44.698364     89.396728
     -4.959960     46.343423     46.343423     92.686847
     -4.949950     45.988125     45.988125     91.976250
     -4.939940     43.774329     43.774329     87.548658
     -4.929930     40.248819     40.248819     80.497638
     -4.919920     36.238008     36.238008     72.476016
     -4.909910     32.682819     32.682819     65.365638
     -4.899900     30.474283     30.474283     60.948567
     -4.889890     30.296087     30.296087     60.592174
     -4.879880     32.468263     32.468263     64.936525
     -4.869870     36.812746     36.812746     73.625492
     -4.859860     42.602260     42.602260     85.204520
     -4.849850     48.662640     48.662640     97.325279
     -4.839840     53.648120     53.648120    107.296240
     -4.829830     56.419091     56.419091    112.838182
     -4.819820     56.379789     56.379789    112.759577
     -4.809810     53.632860     53.632860    107.265719
     -4.799800     48.887699     48.887699     97.775399
     -4.789790     43.175039     43.175039     86.350078
     -4.779780     37.503252     37.503252     75.006504
     -4.769770     32.597486     32.597486     65.194972
     -4.759760     28.798204     28.798204     57.596407
     -4.749750     26.109257     26.109257     52.218515
     -4.739740     24.328111     24.328111     48.656223
     -4.729730     23.182634     23.182634     46.365269
     -4.719720     22.426488     22.426488     44.852976
     -4.709710     21.881698     21.881698     43.763397
     -4.699700     21.443125     21.443125     42.886251
     -4.689690     21.068757     21.068757     42.137513
     -4.679680     20.774061     20.774061     41.548123
     -4.669670     20.635177     20.635177     41.270354
     -4.659660     20.794276     20.794276     41.588553
     -4.649650     21.457348     21.457348     42.914696
     -4.639640     22.876652     22.876652     45.753303
     -4.629630     25.309473     25.309473     50.618945
     -4.619620     28.942546     28.942546     57.885091
     -4.609610     33.781292     33.781292     67.562584
     -4.599600     39.534438     39.534438     79.068875
     -4.589590     45.561805     45.561805     91.123609
     -4.579580     50.958125     50.958125    101.916250
     -4.569570     54.792568     54.792568    109.585137
     -4.559560     56.431444     56.431444    112.862887
     -4.549550     55.800223     55.800223    111.600446
     -4.539540     53.446539     53.446539    106.893079
     -4.529530     50.354444     50.354444    100.708888
     -4.519520     47.581999     47.581999     95.163998
     -4.509510     45.879135     45.879135     91.758270
     -4.499499     45.446662     45.446662     90.893325
     -4.489489     45.924680     45.924680     91.849360
     -4.479479     46.592286     46.592286     93.184571
     -4.469469     46.673848     46.673848     93.347696
     -4.459459     45.617346     45.617346     91.234692
     -4.449449     43.243560     43.243560     86.487121
     -4.439439     39.737672     39.737672     79.475345
     -4.429429     35.527723     35.527723     71.055446
     -4.419419     31.132002     31.132002     62.264004
     -4.409409     27.045495     27.045495     54.090990
     -4.399399     23.688068     23.688068     47.376136
     -4.389389     21.388592     21.388592     42.777184
     -4.379379     20.362892     20.362892     40.725783
     -4.369369     20.667784     20.667784     41.335567
     -4.359359     22.155702     22.155702     44.311404
     -4.349349     24.477573     24.477573     48.955146
     -4.339339     27.164416     27.164416     54.328833
     -4.329329     29.771400     29.771400     59.542800
     -4.319319     32.025320     32.025320     64.050640
     -4.309309     33.906774     33.906774     67.813548
     -4.299299     35.625998     35.625998     71.251997
     -4.289289     37.497357     37.497357     74.994714
     -4.279279     39.758095     39.758095     79.516190
     -4.269269     42.399445     42.399445     84.798889
     -4.259259     45.080628     45.080628     90.161256
     -4.249249     47.177240     47.177240     94.354480
     -4.239239     47.971268     47.971268     95.942536
     -4.229229     46.926501     46.926501     93.853002
     -4.219219     43.937397     43.937397     87.874795
     -4.209209     39.430477     39.430477     78.860955
     -4.199199     34.255235     34.255235     68.510470
     -4.189189     29.403122     29.403122     58.806245
     -4.179179     25.680400     25.680400     51.360800
     -4.169169     23.480572     23.480572     46.961144
     -4.159159     22.745131     22.745131     45.490262
     -4.149149     23.105063     23.105063     46.210127
     -4.139139     24.114746     24.114746     48.229493
     -4.129129     25.460422     25.460422     50.920845
     -4.119119     27.050354     27.050354     54.100709
     -4.109109     28.954207     28.954207     57.908413
     -4.099099     31.230409     31.230409     62.460818
     -4.089089     33.737596     33.737596     67.475192
     -4.079079     36.044190     36.044190     72.088379
     -4.069069     37.510477     37.510477     75.020953
     -4.059059     37.528095     37.528095     75.056191
     -4.049049     35.807049     35.807049     71.614098
     -4.039039     32.560442     32.560442     65.120883
     -4.029029     28.484538     28.484538     56.969076
     -4.019019     24.541073     24.541073     49.082145
     -4.009009     21.651060     21.651060     43.302119
     -3.998999     20.442400     20.442400     40.884800
     -3.988989     21.144956     21.144956     42.289912
     -3.978979     23.637315     23.637315     47.274629
     -3.968969     27.578669     27.578669     55.157339
     -3.958959     32.543853     32.543853     65.087707
     -3.948949     38.114017     38.114017     76.228033
     -3.938939     43.923123     43.923123     87.846245
     -3.928929     49.683680     49.683680     99.367360
     -3.918919     55.203003     55.203003    110.406006
     -3.908909     60.375125     60.375125    120.750250
     -3.898899     65.126139     65.126139    130.252277
     -3.888889     69.316498     69.316498    138.632996
     -3.878879     72.645089     72.645089    145.290179
     -3.868869     74.621843     74.621843    149.243686
     -3.858859     74.654988     74.654988    149.309976
     -3.848849     72.242593     72.242593    144.485186
     -3.838839     67.197823     67.197823    134.395645
     -3.828829     59.808818     59.808818    119.617637
     -3.818819     50.854545     50.854545    101.709090
     -3.808809     41.457002     41.457002     82.914004
     -3.798799     32.817549     32.817549     65.635097
     -3.788789     25.928216     25.928216     51.856432
     -3.778779     21.351078     21.351078     42.702155
     -3.768769     19.125802     19.125802     38.251605
     -3.758759     18.818263     18.818263     37.636525
     -3.748749     19.682594     19.682594     39.365188
     -3.738739     20.885817     20.885817     41.771635
     -3.728729     21.737420     21.737420     43.474840
     -3.718719     21.870501     21.870501     43.741001
     -3.708709     21.332110     21.332110     42.664219
     -3.698699     20.557440     20.557440     41.114880
     -3.688689     20.226711     20.226711     40.453421
     -3.678679     21.034548     21.034548     42.069095
     -3.668669     23.434165     23.434165     46.868329
     -3.658659     27.440195     27.440195     54.880391
     -3.648649     32.568416     32.568416     65.136831
     -3.638639     37.948175     37.948175     75.896350
     -3.628629     42.574255     42.574255     85.148510
     -3.618619     45.601653     45.601653     91.203306
     -3.608609     46.567666     46.567666     93.135332
     -3.598599     45.465663     45.465663     90.931327
     -3.588589     42.669820     42.669820     85.339639
     -3.578579     38.771878     38.771878     77.543756
     -3.568569     34.405773     34.405773     68.811545
     -3.558559     30.109075     30.109075     60.218150
     -3.548549     26.235904     26.235904     52.471807
     -3.538539     22.921452     22.921452     45.842905
     -3.528529     20.101231     20.101231     40.202462
     -3.518519     17.586192     17.586192     35.172385
     -3.508509     15.175801     15.175801     30.351603
     -3.498498     12.767266     12.767266     25.534532
     -3.488488     10.414456     10.414456     20.828912
     -3.478478      8.313358      8.313358     16.626717
     -3.468468      6.726857      6.726857     13.453714
     -3.458458      5.885471      5.885471     11.770942
     -3.448448      5.901360      5.901360     11.802721
     -3.438438      6.719195      6.719195     13.438391
     -3.428428      8.114779      8.114779     16.229558
     -3.418418      9.745597      9.745597     19.491195
     -3.408408     11.248956     11.248956     22.497911
     -3.398398     12.365939     12.365939     24.731878
     -3.388388     13.049493     13.049493     26.098986
     -3.378378     13.509800     13.509800     27.019600
     -3.368368     14.171155     14.171155     28.342311
     -3.358358     15.552610     15.552610     31.105221
     -3.348348     18.114713     18.114713     36.229426
     -3.338338     22.117300     22.117300     44.234600
     -3.328328     27.513415     27.513415     55.026830
     -3.318318     33.887726     33.887726     67.775453
     -3.308308     40.454014     40.454014     80.908029
     -3.298298     46.144874     46.144874     92.289747
     -3.288288     49.821829     49.821829     99.643658
     -3.278278     50.581758     50.581758    101.163517
     -3.268268     48.058908     48.058908     96.117817
     -3.258258     42.582850     42.582850     85.165699
     -3.248248     35.099402     35.099402     70.198804
     -3.238238     26.877578     26.877578     53.755155
     -3.228228     19.135773     19.135773     38.271546
     -3.218218     12.750652     12.750652     25.501304
     -3.208208      8.148486      8.148486     16.296971
     -3.198198      5.372662      5.372662     10.745323
     -3.188188      4.242700      4.242700      8.485400
     -3.178178      4.506411      4.506411      9.012823
     -3.168168      5.926817      5.926817     11.853635
     -3.158158      8.300764      8.300764     16.601529
     -3.148148     11.441947     11.441947     22.883895
     -3.138138     15.163328     15.163328     30.326655
     -3.128128     19.271621     19.271621     38.543242
     -3.118118     23.562525     23.562525     47.125051
     -3.108108     27.801350     27.801350     55.602701
     -3.098098     31.694061     31.694061     63.388122
     -3.088088     34.879672     34.879672     69.759343
     -3.078078     36.977799     36.977799     73.955598
     -3.068068     37.692772     37.692772     75.385545
     -3.058058     36.927959     36.927959     73.855918
     -3.048048     34.840663     34.840663     69.681326
     -3.038038     31.794735     31.794735     63.589470
     -3.028028     28.231064     28.231064     56.462128
     -3.018018     24.529762     24.529762     49.059523
     -3.008008     20.941491     20.941491     41.882982
     -2.997998     17.616737     17.616737     35.233473
     -2.987988     14.697940     14.697940     29.395880
     -2.977978     12.404928     12.404928     24.809856
     -2.967968     11.056467     11.056467     22.112934
     -2.957958     11.012470     11.012470     22.024940
     -2.947948     12.561059     12.561059     25.122118
     -2.937938     15.793804     15.793804     31.587609
     -2.927928     20.513034     20.513034     41.026068
     -2.917918     26.206904     26.206904     52.413808
     -2.907908     32.114188     32.114188     64.228375
     -2.897898     37.377343     37.377343     74.754687
     -2.887888     41.249112     41.249112     82.498224
     -2.877878     43.286662     43.286662     86.573323
     -2.867868     43.458106     43.458106     86.916212
     -2.857858     42.112441     42.112441     84.224882
     -2.847848     39.819728     39.819728     79.639455
     -2.837838     37.148130     37.148130     74.296260
     -2.827828     34.475753     34.475753     68.951507
     -2.817818     31.918207     31.918207     63.836413
     -2.807808     29.393607     29.393607     58.787213
     -2.797798     26.776243     26.776243     53.552487
     -2.787788     24.047136     24.047136     48.094273
     -2.777778     21.358090     21.358090     42.716180
     -2.767768     18.980226     18.980226     37.960453
     -2.757758     17.176531     17.176531     34.353062
     -2.747748     16.080801     16.080801     32.161601
     -2.737738     15.657466     15.657466     31.314932
     -2.727728     15.762781     15.762781     31.525561
     -2.717718     16.260931     16.260931     32.521863
     -2.707708     17.111722     17.111722     34.223444
     -2.697698     18.365744     18.365744     36.731489
     -2.687688     20.068388     20.068388     40.136776
     -2.677678     22.142581     22.142581     44.285163
     -2.667668     24.342564     24.342564     48.685129
     -2.657658     26.327179     26.327179     52.654357
     -2.647648     27.818127     27.818127     55.636253
     -2.637638     28.744684     28.744684     57.489369
     -2.627628     29.279341     29.279341     58.558682
     -2.617618     29.738888     29.738888     59.477776
     -2.607608     30.412370     30.412370     60.824739
     -2.597598     31.418288     31.418288     62.836576
     -2.587588     32.662174     32.662174     65.324348
     -2.577578     33.892257     33.892257     67.784514
     -2.567568     34.795087     34.795087     69.590174
     -2.557558     35.073249     35.073249     70.146499
     -2.547548     34.491228     34.491228     68.982457
     -2.537538     32.915140     32.915140     65.830279
     -2.527528     30.370001     30.370001     60.740003
     -2.517518     27.100213     27.100213     54.200427
     -2.507508     23.584895     23.584895     47.169789
     -2.497497     20.465030     20.465030     40.930059
     -2.487487     18.384067     18.384067     36.768134
     -2.477477     17.796104     17.796104     35.592208
     -2.467467     18.821253     18.821253     37.642505
     -2.457457     21.212448     21.212448     42.424895
     -2.447447     24.451850     24.451850     48.903701
     -2.437437     27.940146     27.940146     55.880291
     -2.427427     31.201050     31.201050     62.402100
     -2.417417     34.013617     34.013617     68.027234
     -2.407407     36.413585     36.413585     72.827169
     -2.397397     38.563525     38.563525     77.127051
     -2.387387     40.555676     40.555676     81.111352
     -2.377377     42.250020     42.250020     84.500040
     -2.367367     43.240724     43.240724     86.481448
     -2.357357     42.985075     42.985075     85.970150
     -2.347347     41.045669     41.045669     82.091337
     -2.337337     37.332149     37.332149     74.664299
     -2.327327     32.222344     32.222344     64.444688
     -2.317317     26.501741     26.501741     53.003482
     -2.307307     21.151142     21.151142     42.302285
     -2.297297     17.080352     17.080352     34.160704
     -2.287287     14.914422     14.914422     29.828844
     -2.277277     14.894014     14.894014     29.788029
     -2.267267     16.890309     16.890309     33.780618
     -2.257257     20.494281     20.494281     40.988562
     -2.247247     25.132027     25.132027     50.264053
     -2.237237     30.170999     30.170999     60.341999
     -2.227227     34.999940     34.999940     69.999879
     -2.217217     39.079597     39.079597     78.159193
     -2.207207     41.971858     41.971858     83.943715
     -2.197197     43.362133     43.362133     86.724266
     -2.187187     43.089784     43.089784     86.179568
     -2.177177     41.189013     41.189013     82.378026
     -2.167167     37.920535     37.920535     75.841070
     -2.157157     33.757489     33.757489     67.514977
     -2.147147     29.296835     29.296835     58.593671
     -2.137137     25.105322     25.105322     50.210644
     -2.127127     21.556586     21.556586     43.113171
     -2.117117     18.737237     18.737237     37.474474
     -2.107107     16.472216     16.472216     32.944431
     -2.097097     14.456292     14.456292     28.912584
     -2.087087     12.420810     12.420810     24.841621
     -2.077077     10.251281     10.251281     20.502561
     -2.067067      8.008275      8.008275     16.016550
     -2.057057      5.862609      5.862609     11.725218
     -2.047047      3.996876      3.996876      7.993752
     -2.037037      2.528461      2.528461      5.056922
     -2.027027      1.482208      1.482208      2.964415
     -2.017017      0.808190      0.808190      1.616381
     -2.007007      0.421716      0.421716      0.843433
     -1.996997      0.243332      0.243332      0.486664
     -1.986987      0.227993      0.227993      0.455986
     -1.976977      0.383360      0.383360      0.766719
     -1.966967      0.780597      0.780597      1.561193
     -1.956957      1.556828      1.556828      3.113656
     -1.946947      2.901079      2.901079      5.802157
     -1.936937      5.012260      5.012260     10.024521
     -1.926927      8.025035      8.025035     16.050069
     -1.916917     11.918383     11.918383     23.836766
     -1.906907     16.443784     16.443784     32.887569
     -1.896897     21.118400     21.118400     42.236799
     -1.886887     25.309923     25.309923     50.619846
     -1.876877     28.397319     28.397319     56.794638
     -1.866867     29.949315     29.949315     59.898630
     -1.856857     29.848758     29.848758     59.697517
     -1.846847     28.315601     28.315601     56.631202
     -1.836837     25.826853     25.826853     51.653705
     -1.826827     22.969514     22.969514     45.939028
     -1.816817     20.276635     20.276635     40.553270
     -1.806807     18.092478     18.092478     36.184956
     -1.796797     16.502300     16.502300     33.004601
     -1.786787     15.347688     15.347688     30.695376
     -1.776777     14.323906     14.323906     28.647812
     -1.766767     13.123300     13.123300     26.246600
     -1.756757     11.565359     11.565359     23.130717
     -1.746747      9.659214      9.659214     19.318428
     -1.736737      7.579913      7.579913     15.159825
     -1.726727      5.584452      5.584452     11.168904
     -1.716717      3.918854      3.918854      7.837708
     -1.706707      2.759890      2.759890      5.519780
     -1.696697      2.204273      2.204273      4.408546
     -1.686687      2.287024      2.287024      4.574047
     -1.676677      2.997915      2.997915      5.995831
     -1.666667      4.274939      4.274939      8.549878
     -1.656657      5.977735      5.977735     11.955470
     -1.646647      7.866418      7.866418     15.732836
     -1.636637      9.617740      9.617740     19.235480
     -1.626627     10.894785     10.894785     21.789569
