# EIG2DOS: Utility for SIESTA to obtain the electronic density of states
#  E. Artacho, Apr 1999, A. Garcia, Apr 2012
#  Nick R. Papior, Feb 2017
# ------------------------------------------
# Eigenvalues calculated from a non-polarized calculation
# Eigenvalues read from siesta.EIG
# Kpoint weights read from siesta.KP
# Using smearing parameter:   0.0500
# Using 1000 points in the energy range
# Selected bands: 1 to: 2981
# Emin, Emax in file for selected band(s):    -27.2585820    218.3761270
# Nbands, Nspin, Nk   =   2981     1     1
# E_F                 =    -4.2368 eV --> (shifted to ZERO)
# Broadening          =     0.0500 eV
#
#        E            N(up)  (=)   N(down)         Ntot
     -5.000000     33.833033     33.833033     67.666065
     -4.989990     38.069953     38.069953     76.139905
     -4.979980     41.708387     41.708387     83.416775
     -4.969970     44.168303     44.168303     88.336606
     -4.959960     45.027398     45.027398     90.054797
     -4.949950     44.159541     44.159541     88.319083
     -4.939940     41.785655     41.785655     83.571310
     -4.929930     38.431935     38.431935     76.863870
     -4.919920     34.829222     34.829222     69.658443
     -4.909910     31.794127     31.794127     63.588254
     -4.899900     30.108563     30.108563     60.217126
     -4.889890     30.386743     30.386743     60.773486
     -4.879880     32.919766     32.919766     65.839533
     -4.869870     37.525645     37.525645     75.051290
     -4.859860     43.478708     43.478708     86.957416
     -4.849850     49.600106     49.600106     99.200212
     -4.839840     54.534635     54.534635    109.069269
     -4.829830     57.140559     57.140559    114.281118
     -4.819820     56.840105     56.840105    113.680209
     -4.809810     53.777055     53.777055    107.554110
     -4.799800     48.714710     48.714710     97.429420
     -4.789790     42.732775     42.732775     85.465551
     -4.779780     36.869648     36.869648     73.739296
     -4.769770     31.858547     31.858547     63.717093
     -4.759760     28.032896     28.032896     56.065791
     -4.749750     25.384046     25.384046     50.768092
     -4.739740     23.697788     23.697788     47.395575
     -4.729730     22.692915     22.692915     45.385830
     -4.719720     22.116201     22.116201     44.232403
     -4.709710     21.784063     21.784063     43.568127
     -4.699700     21.584736     21.584736     43.169472
     -4.689690     21.463468     21.463468     42.926937
     -4.679680     21.410467     21.410467     42.820935
     -4.669670     21.461466     21.461466     42.922932
     -4.659660     21.709566     21.709566     43.419132
     -4.649650     22.318872     22.318872     44.637745
     -4.639640     23.525252     23.525252     47.050503
     -4.629630     25.605496     25.605496     51.210991
     -4.619620     28.798016     28.798016     57.596031
     -4.609610     33.177054     33.177054     66.354108
     -4.599600     38.520205     38.520205     77.040410
     -4.589590     44.244421     44.244421     88.488841
     -4.579580     49.483204     49.483204     98.966409
     -4.569570     53.319797     53.319797    106.639593
     -4.559560     55.102463     55.102463    110.204926
     -4.549550     54.704465     54.704465    109.408930
     -4.539540     52.599210     52.599210    105.198420
     -4.529530     49.701890     49.701890     99.403779
     -4.519520     47.038115     47.038115     94.076231
     -4.509510     45.378602     45.378602     90.757204
     -4.499499     44.988943     44.988943     89.977886
     -4.489489     45.585577     45.585577     91.171154
     -4.479479     46.495897     46.495897     92.991793
     -4.469469     46.937481     46.937481     93.874963
     -4.459459     46.294576     46.294576     92.589151
     -4.449449     44.290465     44.290465     88.580930
     -4.439439     41.015896     41.015896     82.031792
     -4.429429     36.841674     36.841674     73.683349
     -4.419419     32.283978     32.283978     64.567956
     -4.409409     27.887148     27.887148     55.774297
     -4.399399     24.150841     24.150841     48.301682
     -4.389389     21.486419     21.486419     42.972837
     -4.379379     20.172022     20.172022     40.344044
     -4.369369     20.295707     20.295707     40.591414
     -4.359359     21.711514     21.711514     43.423027
     -4.349349     24.051365     24.051365     48.102730
     -4.339339     26.816956     26.816956     53.633912
     -4.329329     29.530905     29.530905     59.061810
     -4.319319     31.887071     31.887071     63.774143
     -4.309309     33.833545     33.833545     67.667091
     -4.299299     35.551476     35.551476     71.102951
     -4.289289     37.338132     37.338132     74.676264
     -4.279279     39.438795     39.438795     78.877589
     -4.269269     41.888153     41.888153     83.776305
     -4.259259     44.420964     44.420964     88.841928
     -4.249249     46.497463     46.497463     92.994927
     -4.239239     47.457151     47.457151     94.914303
     -4.229229     46.762876     46.762876     93.525752
     -4.219219     44.242249     44.242249     88.484498
     -4.209209     40.211626     40.211626     80.423251
     -4.199199     35.407903     35.407903     70.815807
     -4.189189     30.745273     30.745273     61.490546
     -4.179179     27.006064     27.006064     54.012129
     -4.169169     24.608550     24.608550     49.217100
     -4.159159     23.549213     23.549213     47.098427
     -4.149149     23.523559     23.523559     47.047118
     -4.139139     24.144624     24.144624     48.289249
     -4.129129     25.143627     25.143627     50.287255
     -4.119119     26.459071     26.459071     52.918142
     -4.109109     28.179637     28.179637     56.359275
     -4.099099     30.376228     30.376228     60.752456
     -4.089089     32.915388     32.915388     65.830775
     -4.079079     35.366173     35.366173     70.732346
     -4.069069     37.076629     37.076629     74.153258
     -4.059059     37.409581     37.409581     74.819163
     -4.049049     36.031906     36.031906     72.063813
     -4.039039     33.107259     33.107259     66.214518
     -4.029029     29.285535     29.285535     58.571070
     -4.019019     25.491470     25.491470     50.982939
     -4.009009     22.620974     22.620974     45.241947
     -3.998999     21.290710     21.290710     42.581419
     -3.988989     21.737436     21.737436     43.474871
     -3.978979     23.869659     23.869659     47.739319
     -3.968969     27.399266     27.399266     54.798531
     -3.958959     31.966445     31.966445     63.932890
     -3.948949     37.211976     37.211976     74.423952
     -3.938939     42.805178     42.805178     85.610356
     -3.928929     48.460749     48.460749     96.921497
     -3.918919     53.961019     53.961019    107.922037
     -3.908909     59.166272     59.166272    118.332544
     -3.898899     63.981851     63.981851    127.963701
     -3.888889     68.274076     68.274076    136.548152
     -3.878879     71.771243     71.771243    143.542485
     -3.868869     74.015879     74.015879    148.031759
     -3.858859     74.424000     74.424000    148.847999
     -3.848849     72.457272     72.457272    144.914544
     -3.838839     67.851188     67.851188    135.702375
     -3.828829     60.801514     60.801514    121.603028
     -3.818819     52.017059     52.017059    104.034117
     -3.808809     42.599192     42.599192     85.198385
     -3.798799     33.782277     33.782277     67.564553
     -3.788789     26.626629     26.626629     53.253257
     -3.778779     21.769664     21.769664     43.539327
     -3.768769     19.309916     19.309916     38.619832
     -3.758759     18.844695     18.844695     37.689391
     -3.748749     19.633000     19.633000     39.266001
     -3.738739     20.827319     20.827319     41.654638
     -3.728729     21.711531     21.711531     43.423062
     -3.718719     21.889132     21.889132     43.778265
     -3.708709     21.379301     21.379301     42.758602
     -3.698699     20.596109     20.596109     41.192217
     -3.688689     20.209830     20.209830     40.419661
     -3.678679     20.919478     20.919478     41.838956
     -3.668669     23.197526     23.197526     46.395053
     -3.658659     27.089367     27.089367     54.178735
     -3.648649     32.145358     32.145358     64.290717
     -3.638639     37.522761     37.522761     75.045522
     -3.628629     42.227732     42.227732     84.455465
     -3.618619     45.404994     45.404994     90.809988
     -3.608609     46.562179     46.562179     93.124359
     -3.598599     45.652701     45.652701     91.305402
     -3.588589     43.012789     43.012789     86.025578
     -3.578579     39.208960     39.208960     78.417920
     -3.568569     34.868057     34.868057     69.736114
     -3.558559     30.537719     30.537719     61.075439
     -3.548549     26.593277     26.593277     53.186554
     -3.538539     23.194111     23.194111     46.388221
     -3.528529     20.295625     20.295625     40.591251
     -3.518519     17.720223     17.720223     35.440447
     -3.508509     15.270019     15.270019     30.540037
     -3.498498     12.838684     12.838684     25.677368
     -3.488488     10.474152     10.474152     20.948304
     -3.478478      8.367183      8.367183     16.734367
     -3.468468      6.777513      6.777513     13.555026
     -3.458458      5.934224      5.934224     11.868447
     -3.448448      5.948465      5.948465     11.896930
     -3.438438      6.763140      6.763140     13.526280
     -3.428428      8.151123      8.151123     16.302246
     -3.418418      9.766193      9.766193     19.532387
     -3.408408     11.241711     11.241711     22.483421
     -3.398398     12.314351     12.314351     24.628702
     -3.388388     12.930403     12.930403     25.860806
     -3.378378     13.287714     13.287714     26.575427
     -3.368368     13.788701     13.788701     27.577402
     -3.358358     14.919812     14.919812     29.839624
     -3.348348     17.104612     17.104612     34.209224
     -3.338338     20.579941     20.579941     41.159883
     -3.328328     25.319509     25.319509     50.639019
     -3.318318     31.002177     31.002177     62.004355
     -3.308308     37.018018     37.018018     74.036036
     -3.298298     42.523885     42.523885     85.047769
     -3.288288     46.573742     46.573742     93.147484
     -3.278278     48.328179     48.328179     96.656358
     -3.268268     47.294594     47.294594     94.589188
     -3.258258     43.503670     43.503670     87.007339
     -3.248248     37.533356     37.533356     75.066712
     -3.238238     30.356803     30.356803     60.713606
     -3.228228     23.076110     23.076110     46.152220
     -3.218218     16.653210     16.653210     33.306419
     -3.208208     11.734092     11.734092     23.468184
     -3.198198      8.600845      8.600845     17.201690
     -3.188188      7.223216      7.223216     14.446433
     -3.178178      7.354481      7.354481     14.708962
     -3.168168      8.629947      8.629947     17.259894
     -3.158158     10.656203     10.656203     21.312405
     -3.148148     13.094852     13.094852     26.189704
     -3.138138     15.734023     15.734023     31.468046
     -3.128128     18.519373     18.519373     37.038746
     -3.118118     21.512468     21.512468     43.024936
     -3.108108     24.774964     24.774964     49.549928
     -3.098098     28.227954     28.227954     56.455908
     -3.088088     31.568852     31.568852     63.137703
     -3.078078     34.310276     34.310276     68.620551
     -3.068068     35.938364     35.938364     71.876728
     -3.058058     36.112771     36.112771     72.225541
     -3.048048     34.799713     34.799713     69.599426
     -3.038038     32.267393     32.267393     64.534786
     -3.028028     28.956245     28.956245     57.912491
     -3.018018     25.308653     25.308653     50.617305
     -3.008008     21.656447     21.656447     43.312893
     -2.997998     18.215215     18.215215     36.430430
     -2.987988     15.161455     15.161455     30.322911
     -2.977978     12.722358     12.722358     25.444715
     -2.967968     11.212202     11.212202     22.424405
     -2.957958     10.989499     10.989499     21.978999
     -2.947948     12.352398     12.352398     24.704796
     -2.937938     15.414130     15.414130     30.828259
     -2.927928     20.004281     20.004281     40.008563
     -2.917918     25.634815     25.634815     51.269630
     -2.907908     31.556129     31.556129     63.112258
     -2.897898     36.904737     36.904737     73.809474
     -2.887888     40.910009     40.910009     81.820017
     -2.877878     43.094597     43.094597     86.189193
     -2.867868     43.391889     43.391889     86.783779
     -2.857858     42.127986     42.127986     84.255972
     -2.847848     39.870355     39.870355     79.740710
     -2.837838     37.205620     37.205620     74.411240
     -2.827828     34.542943     34.542943     69.085886
     -2.817818     32.026722     32.026722     64.053445
     -2.807808     29.586972     29.586972     59.173945
     -2.797798     27.086072     27.086072     54.172145
     -2.787788     24.474041     24.474041     48.948081
     -2.777778     21.866580     21.866580     43.733159
     -2.767768     19.509284     19.509284     39.018568
     -2.757758     17.659249     17.659249     35.318498
     -2.747748     16.462524     16.462524     32.925049
     -2.737738     15.904445     15.904445     31.808890
     -2.727728     15.860332     15.860332     31.720664
     -2.717718     16.206762     16.206762     32.413524
     -2.707708     16.912030     16.912030     33.824060
     -2.697698     18.037947     18.037947     36.075895
     -2.687688     19.647576     19.647576     39.295151
     -2.677678     21.684001     21.684001     43.368001
     -2.667668     23.913466     23.913466     47.826931
     -2.657658     25.988173     25.988173     51.976346
     -2.647648     27.602340     27.602340     55.204680
     -2.637638     28.646297     28.646297     57.292594
     -2.627628     29.258487     29.258487     58.516974
     -2.617618     29.740233     29.740233     59.480466
     -2.607608     30.387063     30.387063     60.774125
     -2.597598     31.338912     31.338912     62.677823
     -2.587588     32.527074     32.527074     65.054149
     -2.577578     33.722842     33.722842     67.445684
     -2.567568     34.631351     34.631351     69.262701
     -2.557558     34.968717     34.968717     69.937433
     -2.547548     34.504145     34.504145     69.008290
     -2.537538     33.093482     33.093482     66.186963
     -2.527528     30.733632     30.733632     61.467264
     -2.517518     27.628649     27.628649     55.257298
     -2.507508     24.218154     24.218154     48.436308
     -2.497497     21.117944     21.117944     42.235888
     -2.487487     18.966692     18.966692     37.933383
     -2.477477     18.230458     18.230458     36.460917
     -2.467467     19.048866     19.048866     38.097732
     -2.457457     21.194157     21.194157     42.388314
     -2.447447     24.165640     24.165640     48.331280
     -2.437437     27.381990     27.381990     54.763980
     -2.427427     30.389424     30.389424     60.778847
     -2.417417     32.994553     32.994553     65.989106
     -2.407407     35.262595     35.262595     70.525191
     -2.397397     37.382904     37.382904     74.765808
     -2.387387     39.467634     39.467634     78.935269
     -2.377377     41.385581     41.385581     82.771161
     -2.367367     42.722460     42.722460     85.444920
     -2.357357     42.902509     42.902509     85.805018
     -2.347347     41.427528     41.427528     82.855057
     -2.337337     38.126575     38.126575     76.253150
     -2.327327     33.297825     33.297825     66.595649
     -2.317317     27.674153     27.674153     55.348305
     -2.307307     22.229302     22.229302     44.458604
     -2.297297     17.912638     17.912638     35.825276
     -2.287287     15.418784     15.418784     30.837568
     -2.277277     15.062511     15.062511     30.125022
     -2.267267     16.771069     16.771069     33.542137
     -2.257257     20.162214     20.162214     40.324427
     -2.247247     24.661907     24.661907     49.323813
     -2.237237     29.623165     29.623165     59.246331
     -2.227227     34.421743     34.421743     68.843485
     -2.217217     38.517560     38.517560     77.035119
     -2.207207     41.483825     41.483825     82.967650
     -2.197197     43.018640     43.018640     86.037279
     -2.187187     42.960179     42.960179     85.920358
     -2.177177     41.317470     41.317470     82.634940
     -2.167167     38.304479     38.304479     76.608958
     -2.157157     34.341433     34.341433     68.682867
     -2.147147     29.987247     29.987247     59.974495
     -2.137137     25.800886     25.800886     51.601772
     -2.127127     22.179763     22.179763     44.359525
     -2.117117     19.252601     19.252601     38.505202
     -2.107107     16.884886     16.884886     33.769772
     -2.097097     14.794710     14.794710     29.589421
     -2.087087     12.715289     12.715289     25.430579
     -2.077077     10.519388     10.519388     21.038775
     -2.067067      8.251818      8.251818     16.503637
     -2.057057      6.073707      6.073707     12.147414
     -2.047047      4.166796      4.166796      8.333593
     -2.037037      2.653714      2.653714      5.307428
     -2.027027      1.565732      1.565732      3.131464
     -2.017017      0.856465      0.856465      1.712931
     -2.007007      0.439582      0.439582      0.879164
     -1.996997      0.227336      0.227336      0.454672
     -1.986987      0.157527      0.157527      0.315055
     -1.976977      0.208276      0.208276      0.416552
     -1.966967      0.405735      0.405735      0.811469
     -1.956957      0.828595      0.828595      1.657190
     -1.946947      1.607790      1.607790      3.215580
     -1.936937      2.914412      2.914412      5.828823
     -1.926927      4.927537      4.927537      9.855074
     -1.916917      7.778944      7.778944     15.557888
     -1.906907     11.483156     11.483156     22.966312
     -1.896897     15.874369     15.874369     31.748738
     -1.886887     20.579524     20.579524     41.159048
     -1.876877     25.052839     25.052839     50.105678
     -1.866867     28.679588     28.679588     57.359177
     -1.856857     30.929819     30.929819     61.859637
     -1.846847     31.515307     31.515307     63.030613
     -1.836837     30.488532     30.488532     60.977064
     -1.826827     28.233232     28.233232     56.466465
     -1.816817     25.335828     25.335828     50.671656
     -1.806807     22.382177     22.382177     44.764354
     -1.796797     19.765675     19.765675     39.531351
     -1.786787     17.592281     17.592281     35.184563
     -1.776777     15.719910     15.719910     31.439821
     -1.766767     13.899753     13.899753     27.799505
     -1.756757     11.937809     11.937809     23.875618
     -1.746747      9.795512      9.795512     19.591024
     -1.736737      7.594043      7.594043     15.188086
     -1.726727      5.544440      5.544440     11.088881
     -1.716717      3.858558      3.858558      7.717117
     -1.706707      2.689891      2.689891      5.379783
     -1.696697      2.120852      2.120852      4.241703
     -1.686687      2.179885      2.179885      4.359770
     -1.676677      2.857487      2.857487      5.714973
     -1.666667      4.099227      4.099227      8.198453
     -1.656657      5.777387      5.777387     11.554773
     -1.646647      7.665658      7.665658     15.331316
     -1.636637      9.449260      9.449260     18.898520
     -1.626627     10.788889     10.788889     21.577779
