# EIG2DOS: Utility for SIESTA to obtain the electronic density of states
#  E. Artacho, Apr 1999, A. Garcia, Apr 2012
#  Nick R. Papior, Feb 2017
# ------------------------------------------
# Eigenvalues calculated from a non-polarized calculation
# Eigenvalues read from siesta.EIG
# Kpoint weights read from siesta.KP
# Using smearing parameter:   0.0500
# Using 1000 points in the energy range
# Selected bands: 1 to: 2981
# Emin, Emax in file for selected band(s):    -27.2342885    218.3684040
# Nbands, Nspin, Nk   =   2981     1     1
# E_F                 =    -4.2322 eV --> (shifted to ZERO)
# Broadening          =     0.0500 eV
#
#        E            N(up)  (=)   N(down)         Ntot
     -5.000000     32.927094     32.927094     65.854188
     -4.989990     37.371634     37.371634     74.743268
     -4.979980     41.354255     41.354255     82.708511
     -4.969970     44.231192     44.231192     88.462385
     -4.959960     45.490495     45.490495     90.980990
     -4.949950     44.920670     44.920670     89.841340
     -4.939940     42.689116     42.689116     85.378232
     -4.929930     39.312659     39.312659     78.625318
     -4.919920     35.550752     35.550752     71.101503
     -4.909910     32.268891     32.268891     64.537782
     -4.899900     30.300200     30.300200     60.600401
     -4.889890     30.302358     30.302358     60.604715
     -4.879880     32.600787     32.600787     65.201574
     -4.869870     37.041091     37.041091     74.082182
     -4.859860     42.918844     42.918844     85.837689
     -4.849850     49.066090     49.066090     98.132180
     -4.839840     54.122046     54.122046    108.244093
     -4.829830     56.919708     56.919708    113.839415
     -4.819820     56.840128     56.840128    113.680257
     -4.809810     53.981065     53.981065    107.962129
     -4.799800     49.068863     49.068863     98.137725
     -4.789790     43.165548     43.165548     86.331095
     -4.779780     37.312786     37.312786     74.625572
     -4.769770     32.261121     32.261121     64.522243
     -4.759760     28.364120     28.364120     56.728241
     -4.749750     25.625672     25.625672     51.251344
     -4.739740     23.829625     23.829625     47.659250
     -4.729730     22.674856     22.674856     45.349713
     -4.719720     21.869518     21.869518     43.739036
     -4.709710     21.176654     21.176654     42.353307
     -4.699700     20.430012     20.430012     40.860024
     -4.689690     19.547049     19.547049     39.094098
     -4.679680     18.555989     18.555989     37.111977
     -4.669670     17.630910     17.630910     35.261819
     -4.659660     17.106725     17.106725     34.213451
     -4.649650     17.441464     17.441464     34.882928
     -4.639640     19.113102     19.113102     38.226204
     -4.629630     22.471073     22.471073     44.942147
     -4.619620     27.587829     27.587829     55.175657
     -4.609610     34.160870     34.160870     68.321741
     -4.599600     41.503494     41.503494     83.006988
     -4.589590     48.642604     48.642604     97.285208
     -4.579580     54.517919     54.517919    109.035838
     -4.569570     58.245789     58.245789    116.491577
     -4.559560     59.376108     59.376108    118.752215
     -4.549550     58.050036     58.050036    116.100072
     -4.539540     54.982121     54.982121    109.964242
     -4.529530     51.249391     51.249391    102.498782
     -4.519520     47.950261     47.950261     95.900522
     -4.509510     45.857252     45.857252     91.714505
     -4.499499     45.195315     45.195315     90.390631
     -4.489489     45.625317     45.625317     91.250633
     -4.479479     46.425089     46.425089     92.850178
     -4.469469     46.780814     46.780814     93.561629
     -4.459459     46.066446     46.066446     92.132892
     -4.449449     44.011157     44.011157     88.022315
     -4.439439     40.718041     40.718041     81.436082
     -4.429429     36.566363     36.566363     73.132726
     -4.419419     32.069853     32.069853     64.139706
     -4.409409     27.758263     27.758263     55.516526
     -4.399399     24.109134     24.109134     48.218268
     -4.389389     21.512277     21.512277     43.024554
     -4.379379     20.232511     20.232511     40.465022
     -4.369369     20.356471     20.356471     40.712943
     -4.359359     21.746928     21.746928     43.493855
     -4.349349     24.048906     24.048906     48.097812
     -4.339339     26.775204     26.775204     53.550408
     -4.329329     29.454052     29.454052     58.908104
     -4.319319     31.780434     31.780434     63.560868
     -4.309309     33.703391     33.703391     67.406783
     -4.299299     35.409053     35.409053     70.818107
     -4.289289     37.204170     37.204170     74.408339
     -4.279279     39.343365     39.343365     78.686730
     -4.269269     41.863055     41.863055     83.726109
     -4.259259     44.486683     44.486683     88.973367
     -4.249249     46.651150     46.651150     93.302300
     -4.239239     47.668692     47.668692     95.337383
     -4.229229     46.982242     46.982242     93.964485
     -4.219219     44.415409     44.415409     88.830818
     -4.209209     40.298134     40.298134     80.596269
     -4.199199     35.393160     35.393160     70.786320
     -4.189189     30.643548     30.643548     61.287097
     -4.179179     26.854335     26.854335     53.708669
     -4.169169     24.454001     24.454001     48.908003
     -4.159159     23.434626     23.434626     46.869252
     -4.149149     23.475043     23.475043     46.950086
     -4.139139     24.165494     24.165494     48.330988
     -4.129129     25.216301     25.216301     50.432602
     -4.119119     26.553988     26.553988     53.107976
     -4.109109     28.267412     28.267412     56.534823
     -4.099099     30.437983     30.437983     60.875965
     -4.089089     32.947162     32.947162     65.894323
     -4.079079     35.375970     35.375970     70.751941
     -4.069069     37.075916     37.075916     74.151831
     -4.059059     37.403495     37.403495     74.806990
     -4.049049     36.013093     36.013093     72.026187
     -4.039039     33.056746     33.056746     66.113492
     -4.029029     29.180828     29.180828     58.361656
     -4.019019     25.318495     25.318495     50.636990
     -4.009009     22.384210     22.384210     44.768419
     -3.998999     21.016264     21.016264     42.032529
     -3.988989     21.467045     21.467045     42.934090
     -3.978979     23.648122     23.648122     47.296244
     -3.968969     27.261166     27.261166     54.522333
     -3.958959     31.928064     31.928064     63.856127
     -3.948949     37.270998     37.270998     74.541996
     -3.938939     42.946508     42.946508     85.893016
     -3.928929     48.664130     48.664130     97.328259
     -3.918919     54.206465     54.206465    108.412930
     -3.908909     59.435498     59.435498    118.870997
     -3.898899     64.256255     64.256255    128.512509
     -3.888889     68.531540     68.531540    137.063080
     -3.878879     71.984993     71.984993    143.969986
     -3.868869     74.158315     74.158315    148.316630
     -3.858859     74.475883     74.475883    148.951766
     -3.848849     72.418408     72.418408    144.836817
     -3.838839     67.745630     67.745630    135.491259
     -3.828829     60.671780     60.671780    121.343560
     -3.818819     51.908190     51.908190    103.816381
     -3.808809     42.540483     42.540483     85.080967
     -3.798799     33.776719     33.776719     67.553439
     -3.788789     26.653584     26.653584     53.307168
     -3.778779     21.798346     21.798346     43.596693
     -3.768769     19.315600     19.315600     38.631199
     -3.758759     18.819373     18.819373     37.638746
     -3.748749     19.586506     19.586506     39.173011
     -3.738739     20.780135     20.780135     41.560271
     -3.728729     21.683775     21.683775     43.367551
     -3.718719     21.890746     21.890746     43.781493
     -3.708709     21.405195     21.405195     42.810390
     -3.698699     20.627887     20.627887     41.255775
     -3.688689     20.223407     20.223407     40.446813
     -3.678679     20.895663     20.895663     41.791326
     -3.668669     23.131154     23.131154     46.262309
     -3.658659     26.992636     26.992636     53.985272
     -3.648649     32.043332     32.043332     64.086665
     -3.638639     37.442857     37.442857     74.885714
     -3.628629     42.188387     42.188387     84.376775
     -3.618619     45.409380     45.409380     90.818761
     -3.608609     46.599903     46.599903     93.199806
     -3.598599     45.707638     45.707638     91.415276
     -3.588589     43.071800     43.071800     86.143601
     -3.578579     39.266531     39.266531     78.533063
     -3.568569     34.925421     34.925421     69.850841
     -3.558559     30.598811     30.598811     61.197623
     -3.548549     26.661182     26.661182     53.322363
     -3.538539     23.269973     23.269973     46.539947
     -3.528529     20.379374     20.379374     40.758748
     -3.518519     17.811159     17.811159     35.622318
     -3.508509     15.366139     15.366139     30.732279
     -3.498498     12.935285     12.935285     25.870571
     -3.488488     10.563156     10.563156     21.126312
     -3.478478      8.438173      8.438173     16.876345
     -3.468468      6.820309      6.820309     13.640617
     -3.458458      5.942035      5.942035     11.884069
     -3.448448      5.920536      5.920536     11.841071
     -3.438438      6.706061      6.706061     13.412121
     -3.428428      8.078188      8.078188     16.156377
     -3.418418      9.694460      9.694460     19.388919
     -3.408408     11.187114     11.187114     22.374228
     -3.398398     12.286328     12.286328     24.572655
     -3.388388     12.928321     12.928321     25.856641
     -3.378378     13.301266     13.301266     26.602532
     -3.368368     13.803081     13.803081     27.606161
     -3.358358     14.924542     14.924542     29.849084
     -3.348348     17.103288     17.103288     34.206575
     -3.338338     20.597135     20.597135     41.194270
     -3.328328     25.400811     25.400811     50.801623
     -3.318318     31.204084     31.204084     62.408168
     -3.308308     37.387232     37.387232     74.774464
     -3.298298     43.071056     43.071056     86.142112
     -3.288288     47.252758     47.252758     94.505517
     -3.278278     49.034070     49.034070     98.068140
     -3.268268     47.886649     47.886649     95.773298
     -3.258258     43.846576     43.846576     87.693152
     -3.248248     37.535999     37.535999     75.071998
     -3.238238     29.985770     29.985770     59.971540
     -3.228228     22.332964     22.332964     44.665929
     -3.218218     15.525561     15.525561     31.051123
     -3.208208     10.148787     10.148787     20.297573
     -3.198198      6.413213      6.413213     12.826427
     -3.188188      4.265387      4.265387      8.530774
     -3.178178      3.540315      3.540315      7.080630
     -3.168168      4.081464      4.081464      8.162928
     -3.158158      5.789917      5.789917     11.579833
     -3.148148      8.604396      8.604396     17.208792
     -3.138138     12.440562     12.440562     24.881125
     -3.128128     17.125752     17.125752     34.251504
     -3.118118     22.357814     22.357814     44.715628
     -3.108108     27.702388     27.702388     55.404775
     -3.098098     32.630853     32.630853     65.261707
     -3.088088     36.594757     36.594757     73.189514
     -3.078078     39.127068     39.127068     78.254136
     -3.068068     39.949370     39.949370     79.898741
     -3.058058     39.048987     39.048987     78.097975
     -3.048048     36.686056     36.686056     73.372111
     -3.038038     33.312746     33.312746     66.625492
     -3.028028     29.431382     29.431382     58.862763
     -3.018018     25.457194     25.457194     50.914389
     -3.008008     21.653256     21.653256     43.306511
     -2.997998     18.163062     18.163062     36.326124
     -2.987988     15.107827     15.107827     30.215654
     -2.977978     12.680769     12.680769     25.361539
     -2.967968     11.179461     11.179461     22.358923
     -2.957958     10.956734     10.956734     21.913469
     -2.947948     12.311129     12.311129     24.622258
     -2.937938     15.359422     15.359422     30.718845
     -2.927928     19.936268     19.936268     39.872536
     -2.917918     25.558796     25.558796     51.117592
     -2.907908     31.481023     31.481023     62.962046
     -2.897898     36.840117     36.840117     73.680234
     -2.887888     40.862879     40.862879     81.725759
     -2.877878     43.067590     43.067590     86.135179
     -2.867868     43.383905     43.383905     86.767809
     -2.857858     42.136757     42.136757     84.273513
     -2.847848     39.894991     39.894991     79.789983
     -2.837838     37.247045     37.247045     74.494091
     -2.827828     34.601538     34.601538     69.203077
     -2.817818     32.098559     32.098559     64.197118
     -2.807808     29.661286     29.661286     59.322572
     -2.797798     27.146180     27.146180     54.292361
     -2.787788     24.502004     24.502004     49.004009
     -2.777778     21.849771     21.849771     43.699541
     -2.767768     19.445884     19.445884     38.891768
     -2.757758     17.560114     17.560114     35.120229
     -2.747748     16.348364     16.348364     32.696727
     -2.737738     15.799187     15.799187     31.598375
     -2.727728     15.783162     15.783162     31.566323
     -2.717718     16.166049     16.166049     32.332099
     -2.707708     16.903827     16.903827     33.807653
     -2.697698     18.049767     18.049767     36.099534
     -2.687688     19.665627     19.665627     39.331254
     -2.677678     21.700187     21.700187     43.400375
     -2.667668     23.928625     23.928625     47.857250
     -2.657658     26.010169     26.010169     52.020339
     -2.647648     27.640559     27.640559     55.281119
     -2.637638     28.705960     28.705960     57.411920
     -2.627628     29.337929     29.337929     58.675858
     -2.617618     29.832209     29.832209     59.664419
     -2.607608     30.482658     30.482658     60.965316
     -2.597598     31.431318     31.431318     62.862635
     -2.587588     32.612998     32.612998     65.225996
     -2.577578     33.801105     33.801105     67.602210
     -2.567568     34.700082     34.700082     69.400164
     -2.557558     35.023210     35.023210     70.046419
     -2.547548     34.536689     34.536689     69.073378
     -2.537538     33.094918     33.094918     66.189837
     -2.527528     30.695289     30.695289     61.390578
     -2.517518     27.543487     27.543487     55.086974
     -2.507508     24.081283     24.081283     48.162566
     -2.497497     20.927906     20.927906     41.855812
     -2.487487     18.728808     18.728808     37.457616
     -2.477477     17.961743     17.961743     35.923485
     -2.467467     18.781586     18.781586     37.563172
     -2.457457     20.974092     20.974092     41.948184
     -2.447447     24.042827     24.042827     48.085655
     -2.437437     27.395870     27.395870     54.791739
     -2.427427     30.554394     30.554394     61.108787
     -2.417417     33.293034     33.293034     66.586069
     -2.407407     35.649518     35.649518     71.299035
     -2.397397     37.799628     37.799628     75.599255
     -2.387387     39.858507     39.858507     79.717013
     -2.377377     41.709734     41.709734     83.419467
     -2.367367     42.957337     42.957337     85.914673
     -2.357357     43.040914     43.040914     86.081828
     -2.347347     41.472932     41.472932     82.945865
     -2.337337     38.090286     38.090286     76.180572
     -2.327327     33.198155     33.198155     66.396310
     -2.317317     27.535124     27.535124     55.070247
     -2.307307     22.076724     22.076724     44.153447
     -2.297297     17.767946     17.767946     35.535892
     -2.287287     15.293418     15.293418     30.586835
     -2.277277     14.956032     14.956032     29.912064
     -2.267267     16.674439     16.674439     33.348877
     -2.257257     20.064899     20.064899     40.129797
     -2.247247     24.559363     24.559363     49.118725
     -2.237237     29.520899     29.520899     59.041798
     -2.227227     34.333808     34.333808     68.667617
     -2.217217     38.460263     38.460263     76.920527
     -2.207207     41.467928     41.467928     82.935855
     -2.197197     43.044015     43.044015     86.088030
     -2.187187     43.015318     43.015318     86.030636
     -2.177177     41.383577     41.383577     82.767154
     -2.167167     38.361869     38.361869     76.723737
     -2.157157     34.375468     34.375468     68.750936
     -2.147147     29.991924     29.991924     59.983848
     -2.137137     25.779430     25.779430     51.558859
     -2.127127     22.142570     22.142570     44.285139
     -2.117117     19.213429     19.213429     38.426857
     -2.107107     16.856501     16.856501     33.713002
     -2.097097     14.785314     14.785314     29.570627
     -2.087087     12.726788     12.726788     25.453575
     -2.077077     10.547945     10.547945     21.095890
     -2.067067      8.290257      8.290257     16.580514
     -2.057057      6.114776      6.114776     12.229552
     -2.047047      4.206448      4.206448      8.412895
     -2.037037      2.694403      2.694403      5.388806
     -2.027027      1.621025      1.621025      3.242050
     -2.017017      0.959288      0.959288      1.918577
     -2.007007      0.656396      0.656396      1.312792
     -1.996997      0.678434      0.678434      1.356869
     -1.986987      1.038699      1.038699      2.077398
     -1.976977      1.801824      1.801824      3.603649
     -1.966967      3.062520      3.062520      6.125041
     -1.956957      4.903330      4.903330      9.806661
     -1.946947      7.343120      7.343120     14.686240
     -1.936937     10.295361     10.295361     20.590722
     -1.926927     13.556620     13.556620     27.113239
     -1.916917     16.835898     16.835898     33.671796
     -1.906907     19.816833     19.816833     39.633666
     -1.896897     22.227853     22.227853     44.455706
     -1.886887     23.891822     23.891822     47.783644
     -1.876877     24.739937     24.739937     49.479875
     -1.866867     24.796030     24.796030     49.592060
     -1.856857     24.152160     24.152160     48.304320
     -1.846847     22.954040     22.954040     45.908079
     -1.836837     21.397239     21.397239     42.794479
     -1.826827     19.716331     19.716331     39.432662
     -1.816817     18.146244     18.146244     36.292489
     -1.806807     16.854749     16.854749     33.709497
     -1.796797     15.874906     15.874906     31.749812
     -1.786787     15.081844     15.081844     30.163689
     -1.776777     14.241532     14.241532     28.483063
     -1.766767     13.117265     13.117265     26.234531
     -1.756757     11.581469     11.581469     23.162938
     -1.746747      9.674954      9.674954     19.349908
     -1.736737      7.587695      7.587695     15.175389
     -1.726727      5.581068      5.581068     11.162137
     -1.716717      3.899837      3.899837      7.799675
     -1.706707      2.717048      2.717048      5.434096
     -1.696697      2.125579      2.125579      4.251158
     -1.686687      2.158997      2.158997      4.317994
     -1.676677      2.810771      2.810771      5.621542
     -1.666667      4.029688      4.029688      8.059375
     -1.656657      5.692519      5.692519     11.385038
     -1.646647      7.578008      7.578008     15.156015
     -1.636637      9.374868      9.374868     18.749736
     -1.626627     10.743403     10.743403     21.486806
