# EIG2DOS: Utility for SIESTA to obtain the electronic density of states
#  E. Artacho, Apr 1999, A. Garcia, Apr 2012
#  Nick R. Papior, Feb 2017
# ------------------------------------------
# Eigenvalues calculated from a non-polarized calculation
# Eigenvalues read from siesta.EIG
# Kpoint weights read from siesta.KP
# Using smearing parameter:   0.0500
# Using 1000 points in the energy range
# Selected bands: 1 to: 2981
# Emin, Emax in file for selected band(s):    -27.3995526    218.4167980
# Nbands, Nspin, Nk   =   2981     1     1
# E_F                 =    -4.1838 eV --> (shifted to ZERO)
# Broadening          =     0.0500 eV
#
#        E            N(up)  (=)   N(down)         Ntot
     -5.000000     32.153271     32.153271     64.306541
     -4.989990     37.584728     37.584728     75.169456
     -4.979980     42.631132     42.631132     85.262264
     -4.969970     46.372264     46.372264     92.744528
     -4.959960     48.078689     48.078689     96.157378
     -4.949950     47.458914     47.458914     94.917829
     -4.939940     44.758966     44.758966     89.517932
     -4.929930     40.692765     40.692765     81.385530
     -4.919920     36.257823     36.257823     72.515645
     -4.909910     32.517945     32.517945     65.035891
     -4.899900     30.408035     30.408035     60.816070
     -4.889890     30.572978     30.572978     61.145957
     -4.879880     33.236780     33.236780     66.473560
     -4.869870     38.119612     38.119612     76.239224
     -4.859860     44.448158     44.448158     88.896316
     -4.849850     51.097673     51.097673    102.195347
     -4.839840     56.852336     56.852336    113.704672
     -4.829830     60.705714     60.705714    121.411428
     -4.819820     62.093043     62.093043    124.186085
     -4.809810     60.975041     60.975041    121.950081
     -4.799800     57.761345     57.761345    115.522690
     -4.789790     53.127566     53.127566    106.255131
     -4.779780     47.808724     47.808724     95.617447
     -4.769770     42.437775     42.437775     84.875549
     -4.759760     37.460506     37.460506     74.921012
     -4.749750     33.122233     33.122233     66.244467
     -4.739740     29.501183     29.501183     59.002365
     -4.729730     26.558685     26.558685     53.117370
     -4.719720     24.182836     24.182836     48.365671
     -4.709710     22.216505     22.216505     44.433010
     -4.699700     20.477989     20.477989     40.955977
     -4.689690     18.793630     18.793630     37.587260
     -4.679680     17.056316     17.056316     34.112632
     -4.669670     15.301687     15.301687     30.603375
     -4.659660     13.769358     13.769358     27.538716
     -4.649650     12.907445     12.907445     25.814891
     -4.639640     13.292741     13.292741     26.585482
     -4.629630     15.468718     15.468718     30.937436
     -4.619620     19.737344     19.737344     39.474688
     -4.609610     25.969636     25.969636     51.939273
     -4.599600     33.515607     33.515607     67.031215
     -4.589590     41.282116     41.282116     82.564231
     -4.579580     47.994627     47.994627     95.989254
     -4.569570     52.575375     52.575375    105.150749
     -4.559560     54.496710     54.496710    108.993421
     -4.549550     53.955192     53.955192    107.910384
     -4.539540     51.780126     51.780126    103.560252
     -4.529530     49.108928     49.108928     98.217857
     -4.519520     46.966316     46.966316     93.932633
     -4.509510     45.920329     45.920329     91.840658
     -4.499499     45.943101     45.943101     91.886201
     -4.489489     46.508167     46.508167     93.016333
     -4.479479     46.857788     46.857788     93.715577
     -4.469469     46.315074     46.315074     92.630149
     -4.459459     44.515682     44.515682     89.031365
     -4.449449     41.485666     41.485666     82.971333
     -4.439439     37.567972     37.567972     75.135944
     -4.429429     33.263902     33.263902     66.527804
     -4.419419     29.078347     29.078347     58.156694
     -4.409409     25.430995     25.430995     50.861990
     -4.399399     22.639770     22.639770     45.279540
     -4.389389     20.934850     20.934850     41.869701
     -4.379379     20.453453     20.453453     40.906905
     -4.369369     21.199758     21.199758     42.399517
     -4.359359     23.001439     23.001439     46.002877
     -4.349349     25.514931     25.514931     51.029862
     -4.339339     28.308088     28.308088     56.616176
     -4.329329     30.997960     30.997960     61.995920
     -4.319319     33.380385     33.380385     66.760769
     -4.309309     35.484443     35.484443     70.968886
     -4.299299     37.519066     37.519066     75.038133
     -4.289289     39.728924     39.728924     79.457849
     -4.279279     42.217279     42.217279     84.434557
     -4.269269     44.811059     44.811059     89.622118
     -4.259259     47.034786     47.034786     94.069572
     -4.249249     48.225396     48.225396     96.450792
     -4.239239     47.764031     47.764031     95.528063
     -4.229229     45.340877     45.340877     90.681754
     -4.219219     41.136565     41.136565     82.273129
     -4.209209     35.826371     35.826371     71.652743
     -4.199199     30.390130     30.390130     60.780260
     -4.189189     25.803454     25.803454     51.606907
     -4.179179     22.742156     22.742156     45.484311
     -4.169169     21.420820     21.420820     42.841640
     -4.159159     21.618425     21.618425     43.236851
     -4.149149     22.858383     22.858383     45.716766
     -4.139139     24.648366     24.648366     49.296731
     -4.129129     26.668854     26.668854     53.337708
     -4.119119     28.829027     28.829027     57.658054
     -4.109109     31.171683     31.171683     62.343366
     -4.099099     33.683564     33.683564     67.367128
     -4.089089     36.122911     36.122911     72.245823
     -4.079079     37.979387     37.979387     75.958773
     -4.069069     38.618016     38.618016     77.236032
     -4.059059     37.553797     37.553797     75.107593
     -4.049049     34.718183     34.718183     69.436367
     -4.039039     30.571540     30.571540     61.143079
     -4.029029     25.996624     25.996624     51.993247
     -4.019019     22.025978     22.025978     44.051955
     -4.009009     19.535630     19.535630     39.071260
     -3.998999     19.035168     19.035168     38.070336
     -3.988989     20.614579     20.614579     41.229158
     -3.978979     24.024579     24.024579     48.049157
     -3.968969     28.818944     28.818944     57.637888
     -3.958959     34.490502     34.490502     68.981004
     -3.948949     40.567748     40.567748     81.135495
     -3.938939     46.672760     46.672760     93.345520
     -3.928929     52.550274     52.550274    105.100548
     -3.918919     58.065219     58.065219    116.130437
     -3.908909     63.155202     63.155202    126.310404
     -3.898899     67.736833     67.736833    135.473666
     -3.888889     71.598343     71.598343    143.196686
     -3.878879     74.339011     74.339011    148.678022
     -3.868869     75.409734     75.409734    150.819469
     -3.858859     74.263824     74.263824    148.527647
     -3.848849     70.567743     70.567743    141.135486
     -3.838839     64.384144     64.384144    128.768287
     -3.828829     56.245856     56.245856    112.491711
     -3.818819     47.084047     47.084047     94.168095
     -3.808809     38.031412     38.031412     76.062824
     -3.798799     30.164804     30.164804     60.329608
     -3.788789     24.266406     24.266406     48.532811
     -3.778779     20.669098     20.669098     41.338197
     -3.768769     19.221300     19.221300     38.442601
     -3.758759     19.371960     19.371960     38.743920
     -3.748749     20.347264     20.347264     40.694527
     -3.738739     21.371686     21.371686     42.743373
     -3.728729     21.878712     21.878712     43.757425
     -3.718719     21.660102     21.660102     43.320203
     -3.708709     20.915463     20.915463     41.830927
     -3.698699     20.184540     20.184540     40.369081
     -3.688689     20.171847     20.171847     40.343694
     -3.678679     21.504691     21.504691     43.009382
     -3.668669     24.494099     24.494099     48.988198
     -3.658659     28.980891     28.980891     57.961782
     -3.648649     34.332040     34.332040     68.664080
     -3.638639     39.601770     39.601770     79.203541
     -3.628629     43.804066     43.804066     87.608131
     -3.618619     46.192747     46.192747     92.385495
     -3.608609     46.443689     46.443689     92.887377
     -3.598599     44.684827     44.684827     89.369654
     -3.588589     41.392108     41.392108     82.784215
     -3.578579     37.218715     37.218715     74.437430
     -3.568569     32.827714     32.827714     65.655427
     -3.558559     28.767865     28.767865     57.535729
     -3.548549     25.401388     25.401388     50.802776
     -3.538539     22.880335     22.880335     45.760669
     -3.528529     21.168337     21.168337     42.336674
     -3.518519     20.099732     20.099732     40.199465
     -3.508509     19.455004     19.455004     38.910007
     -3.498498     19.024439     19.024439     38.048877
     -3.488488     18.643291     18.643291     37.286581
     -3.478478     18.203817     18.203817     36.407633
     -3.468468     17.660660     17.660660     35.321320
     -3.458458     17.035108     17.035108     34.070216
     -3.448448     16.404943     16.404943     32.809886
     -3.438438     15.865251     15.865251     31.730502
     -3.428428     15.469606     15.469606     30.939213
     -3.418418     15.189420     15.189420     30.378839
     -3.408408     14.930926     14.930926     29.861852
     -3.398398     14.614877     14.614877     29.229753
     -3.388388     14.277200     14.277200     28.554401
     -3.378378     14.127086     14.127086     28.254171
     -3.368368     14.520266     14.520266     29.040531
     -3.358358     15.853616     15.853616     31.707232
     -3.348348     18.426989     18.426989     36.853978
     -3.338338     22.325028     22.325028     44.650055
     -3.328328     27.350424     27.350424     54.700849
     -3.318318     33.015984     33.015984     66.031969
     -3.308308     38.594989     38.594989     77.189979
     -3.298298     43.232573     43.232573     86.465146
     -3.288288     46.114020     46.114020     92.228041
     -3.278278     46.658770     46.658770     93.317540
     -3.268268     44.678212     44.678212     89.356424
     -3.258258     40.431805     40.431805     80.863611
     -3.248248     34.552935     34.552935     69.105871
     -3.238238     27.873474     27.873474     55.746948
     -3.228228     21.217314     21.217314     42.434629
     -3.218218     15.235332     15.235332     30.470665
     -3.208208     10.323761     10.323761     20.647523
     -3.198198      6.629013      6.629013     13.258026
     -3.188188      4.114896      4.114896      8.229792
     -3.178178      2.658468      2.658468      5.316936
     -3.168168      2.142856      2.142856      4.285712
     -3.158158      2.521869      2.521869      5.043738
     -3.148148      3.838541      3.838541      7.677082
     -3.138138      6.188801      6.188801     12.377601
     -3.128128      9.635593      9.635593     19.271185
     -3.118118     14.098828     14.098828     28.197657
     -3.108108     19.266573     19.266573     38.533146
     -3.098098     24.579419     24.579419     49.158837
     -3.088088     29.319951     29.319951     58.639902
     -3.078078     32.792762     32.792762     65.585525
     -3.068068     34.528249     34.528249     69.056498
     -3.058058     34.418533     34.418533     68.837066
     -3.048048     32.719219     32.719219     65.438438
     -3.038038     29.918350     29.918350     59.836700
     -3.028028     26.544624     26.544624     53.089248
     -3.018018     23.015225     23.015225     46.030450
     -3.008008     19.591259     19.591259     39.182518
     -2.997998     16.439098     16.439098     32.878197
     -2.987988     13.736218     13.736218     27.472437
     -2.977978     11.745531     11.745531     23.491062
     -2.967968     10.812679     10.812679     21.625358
     -2.957958     11.287574     11.287574     22.575148
     -2.947948     13.404957     13.404957     26.809914
     -2.937938     17.168982     17.168982     34.337964
     -2.927928     22.281861     22.281861     44.563722
     -2.917918     28.146386     28.146386     56.292772
     -2.907908     33.957179     33.957179     67.914357
     -2.897898     38.871032     38.871032     77.742063
     -2.887888     42.214189     42.214189     84.428379
     -2.877878     43.657625     43.657625     87.315250
     -2.867868     43.289464     43.289464     86.578928
     -2.857858     41.547114     41.547114     83.094228
     -2.847848     39.030991     39.030991     78.061981
     -2.837838     36.278637     36.278637     72.557274
     -2.827828     33.599759     33.599759     67.199519
     -2.817818     31.042757     31.042757     62.085515
     -2.807808     28.494799     28.494799     56.989599
     -2.797798     25.847913     25.847913     51.695827
     -2.787788     23.132935     23.132935     46.265870
     -2.777778     20.548772     20.548772     41.097543
     -2.767768     18.380147     18.380147     36.760295
     -2.757758     16.863118     16.863118     33.726236
     -2.747748     16.084849     16.084849     32.169698
     -2.737738     15.976804     15.976804     31.953608
     -2.727728     16.396236     16.396236     32.792471
     -2.717718     17.231237     17.231237     34.462474
     -2.707708     18.449956     18.449956     36.899912
     -2.697698     20.057052     20.057052     40.114105
     -2.687688     21.992570     21.992570     43.985140
     -2.677678     24.058304     24.058304     48.116608
     -2.667668     25.944658     25.944658     51.889316
     -2.657658     27.360736     27.360736     54.721471
     -2.647648     28.191022     28.191022     56.382045
     -2.637638     28.573345     28.573345     57.146689
     -2.627628     28.839138     28.839138     57.678276
     -2.617618     29.346325     29.346325     58.692650
     -2.607608     30.302313     30.302313     60.604626
     -2.597598     31.672668     31.672668     63.345336
     -2.587588     33.207121     33.207121     66.414243
     -2.577578     34.541752     34.541752     69.083504
     -2.567568     35.307979     35.307979     70.615957
     -2.557558     35.206522     35.206522     70.413045
     -2.547548     34.052257     34.052257     68.104513
     -2.537538     31.817604     31.817604     63.635208
     -2.527528     28.682088     28.682088     57.364177
     -2.517518     25.059040     25.059040     50.118079
     -2.507508     21.556182     21.556182     43.112364
     -2.497497     18.851774     18.851774     37.703549
     -2.487487     17.515068     17.515068     35.030135
     -2.477477     17.836437     17.836437     35.672875
     -2.467467     19.736722     19.736722     39.473443
     -2.457457     22.796796     22.796796     45.593592
     -2.447447     26.401814     26.401814     52.803628
     -2.437437     29.948220     29.948220     59.896440
     -2.427427     33.032651     33.032651     66.065302
     -2.417417     35.543427     35.543427     71.086855
     -2.407407     37.612022     37.612022     75.224045
     -2.397397     39.443556     39.443556     78.887111
     -2.387387     41.106830     41.106830     82.213660
     -2.377377     42.394267     42.394267     84.788535
     -2.367367     42.837994     42.837994     85.675987
     -2.357357     41.893225     41.893225     83.786449
     -2.347347     39.208871     39.208871     78.417742
     -2.337337     34.850831     34.850831     69.701663
     -2.327327     29.363188     29.363188     58.726376
     -2.317317     23.637800     23.637800     47.275601
     -2.307307     18.660173     18.660173     37.320347
     -2.297297     15.249157     15.249157     30.498314
     -2.287287     13.887634     13.887634     27.775269
     -2.277277     14.677454     14.677454     29.354908
     -2.267267     17.391951     17.391951     34.783903
     -2.257257     21.574163     21.574163     43.148326
     -2.247247     26.637367     26.637367     53.274733
     -2.237237     31.947145     31.947145     63.894289
     -2.227227     36.883321     36.883321     73.766642
     -2.217217     40.889962     40.889962     81.779924
     -2.207207     43.524194     43.524194     87.048388
     -2.197197     44.511616     44.511616     89.023233
     -2.187187     43.806218     43.806218     87.612437
     -2.177177     41.635605     41.635605     83.271209
     -2.167167     38.495683     38.495683     76.991365
     -2.157157     35.059308     35.059308     70.118616
     -2.147147     31.994530     31.994530     63.989060
     -2.137137     29.743141     29.743141     59.486281
     -2.127127     28.355939     28.355939     56.711878
     -2.117117     27.477403     27.477403     54.954805
     -2.107107     26.506702     26.506702     53.013403
     -2.097097     24.867492     24.867492     49.734984
     -2.087087     22.256393     22.256393     44.512786
     -2.077077     18.752843     18.752843     37.505686
     -2.067067     14.753003     14.753003     29.506007
     -2.057057     10.783997     10.783997     21.567994
     -2.047047      7.303949      7.303949     14.607898
     -2.037037      4.576702      4.576702      9.153405
     -2.027027      2.651599      2.651599      5.303198
     -2.017017      1.422207      1.422207      2.844414
     -2.007007      0.713290      0.713290      1.426579
     -1.996997      0.354329      0.354329      0.708658
     -1.986987      0.222379      0.222379      0.444757
     -1.976977      0.257715      0.257715      0.515430
     -1.966967      0.463626      0.463626      0.927252
     -1.956957      0.898452      0.898452      1.796905
     -1.946947      1.660537      1.660537      3.321075
     -1.936937      2.861920      2.861920      5.723841
     -1.926927      4.588526      4.588526      9.177053
     -1.916917      6.853027      6.853027     13.706055
     -1.906907      9.556432      9.556432     19.112863
     -1.896897     12.478037     12.478037     24.956074
     -1.886887     15.305663     15.305663     30.611326
     -1.876877     17.701788     17.701788     35.403576
     -1.866867     19.385740     19.385740     38.771481
     -1.856857     20.205975     20.205975     40.411950
     -1.846847     20.180352     20.180352     40.360705
     -1.836837     19.490798     19.490798     38.981595
     -1.826827     18.428363     18.428363     36.856726
     -1.816817     17.298181     17.298181     34.596363
     -1.806807     16.312583     16.312583     32.625167
     -1.796797     15.516062     15.516062     31.032124
     -1.786787     14.781634     14.781634     29.563268
     -1.776777     13.887129     13.887129     27.774258
     -1.766767     12.636452     12.636452     25.272903
     -1.756757     10.964108     10.964108     21.928216
     -1.746747      8.971797      8.971797     17.943594
     -1.736737      6.887164      6.887164     13.774329
     -1.726727      4.978055      4.978055      9.956109
     -1.716717      3.472714      3.472714      6.945429
     -1.706707      2.520503      2.520503      5.041007
     -1.696697      2.194808      2.194808      4.389616
     -1.686687      2.513623      2.513623      5.027247
     -1.676677      3.448556      3.448556      6.897112
     -1.666667      4.909371      4.909371      9.818742
     -1.656657      6.716413      6.716413     13.432826
     -1.646647      8.591119      8.591119     17.182238
     -1.636637     10.192953     10.192953     20.385905
     -1.626627     11.207879     11.207879     22.415758
