# EIG2DOS: Utility for SIESTA to obtain the electronic density of states
#  E. Artacho, Apr 1999, A. Garcia, Apr 2012
#  Nick R. Papior, Feb 2017
# ------------------------------------------
# Eigenvalues calculated from a non-polarized calculation
# Eigenvalues read from siesta.EIG
# Kpoint weights read from siesta.KP
# Using smearing parameter:   0.0500
# Using 1000 points in the energy range
# Selected bands: 1 to: 2981
# Emin, Emax in file for selected band(s):    -27.2420056    218.3696740
# Nbands, Nspin, Nk   =   2981     1     1
# E_F                 =    -4.2306 eV --> (shifted to ZERO)
# Broadening          =     0.0500 eV
#
#        E            N(up)  (=)   N(down)         Ntot
     -5.000000     31.498717     31.498717     62.997434
     -4.989990     36.084319     36.084319     72.168637
     -4.979980     40.438965     40.438965     80.877929
     -4.969970     43.866061     43.866061     87.732122
     -4.959960     45.743965     45.743965     91.487929
     -4.949950     45.728122     45.728122     91.456245
     -4.939940     43.873635     43.873635     87.747270
     -4.929930     40.638735     40.638735     81.277470
     -4.919920     36.785826     36.785826     73.571652
     -4.909910     33.229325     33.229325     66.458651
     -4.899900     30.872247     30.872247     61.744495
     -4.889890     30.443876     30.443876     60.887751
     -4.879880     32.335677     32.335677     64.671354
     -4.869870     36.453602     36.453602     72.907204
     -4.859860     42.145332     42.145332     84.290663
     -4.849850     48.276480     48.276480     96.552960
     -4.839840     53.487062     53.487062    106.974123
     -4.829830     56.570227     56.570227    113.140453
     -4.819820     56.833976     56.833976    113.667952
     -4.809810     54.292647     54.292647    108.585293
     -4.799800     49.607126     49.607126     99.214252
     -4.789790     43.811877     43.811877     87.623755
     -4.779780     37.961559     37.961559     75.923117
     -4.769770     32.846878     32.846878     65.693757
     -4.759760     28.868431     28.868431     57.736861
     -4.749750     26.066780     26.066780     52.133560
     -4.739740     24.243261     24.243261     48.486523
     -4.729730     23.094461     23.094461     46.188922
     -4.719720     22.311554     22.311554     44.623109
     -4.709710     21.634247     21.634247     43.268493
     -4.699700     20.875884     20.875884     41.751769
     -4.689690     19.943735     19.943735     39.887470
     -4.679680     18.868016     18.868016     37.736033
     -4.669670     17.832266     17.832266     35.664532
     -4.659660     17.179362     17.179362     34.358723
     -4.649650     17.366328     17.366328     34.732655
     -4.639640     18.861109     18.861109     37.722218
     -4.629630     22.003628     22.003628     44.007256
     -4.619620     26.872610     26.872610     53.745220
     -4.609610     33.199585     33.199585     66.399170
     -4.599600     40.358602     40.358602     80.717204
     -4.589590     47.445802     47.445802     94.891605
     -4.579580     53.448784     53.448784    106.897569
     -4.569570     57.483319     57.483319    114.966638
     -4.559560     59.041655     59.041655    118.083310
     -4.549550     58.167461     58.167461    116.334923
     -4.539540     55.474177     55.474177    110.948354
     -4.529530     51.971376     51.971376    103.942751
     -4.519520     48.743383     48.743383     97.486766
     -4.509510     46.595947     46.595947     93.191895
     -4.499499     45.809259     45.809259     91.618517
     -4.489489     46.093046     46.093046     92.186091
     -4.479479     46.751496     46.751496     93.502993
     -4.469469     46.976478     46.976478     93.952956
     -4.459459     46.140924     46.140924     92.281848
     -4.449449     43.980253     43.980253     87.960506
     -4.439439     40.614988     40.614988     81.229975
     -4.429429     36.444804     36.444804     72.889608
     -4.419419     31.992826     31.992826     63.985652
     -4.409409     27.777321     27.777321     55.554642
     -4.399399     24.244727     24.244727     48.489453
     -4.389389     21.746274     21.746274     43.492548
     -4.379379     20.516708     20.516708     41.033416
     -4.369369     20.631798     20.631798     41.263596
     -4.359359     21.962614     21.962614     43.925227
     -4.349349     24.172139     24.172139     48.344277
     -4.339339     26.788579     26.788579     53.577158
     -4.329329     29.345927     29.345927     58.691853
     -4.319319     31.537550     31.537550     63.075100
     -4.309309     33.313507     33.313507     66.627015
     -4.299299     34.874658     34.874658     69.749317
     -4.289289     36.560222     36.560222     73.120444
     -4.279279     38.667105     38.667105     77.334210
     -4.269269     41.265823     41.265823     82.531646
     -4.259259     44.086242     44.086242     88.172484
     -4.249249     46.533911     46.533911     93.067822
     -4.239239     47.858014     47.858014     95.716029
     -4.229229     47.427230     47.427230     94.854459
     -4.219219     45.005283     45.005283     90.010565
     -4.209209     40.895821     40.895821     81.791642
     -4.199199     35.874385     35.874385     71.748771
     -4.189189     30.927562     30.927562     61.855124
     -4.179179     26.917952     26.917952     53.835903
     -4.169169     24.327910     24.327910     48.655820
     -4.159159     23.186258     23.186258     46.372515
     -4.149149     23.184466     23.184466     46.368933
     -4.139139     23.900793     23.900793     47.801585
     -4.129129     25.014471     25.014471     50.028943
     -4.119119     26.413130     26.413130     52.826261
     -4.109109     28.154364     28.154364     56.308728
     -4.099099     30.310655     30.310655     60.621310
     -4.089089     32.783108     32.783108     65.566216
     -4.079079     35.192578     35.192578     70.385157
     -4.069069     36.928910     36.928910     73.857820
     -4.059059     37.361224     37.361224     74.722448
     -4.049049     36.118961     36.118961     72.237922
     -4.039039     33.301074     33.301074     66.602148
     -4.029029     29.499223     29.499223     58.998446
     -4.019019     25.618376     25.618376     51.236752
     -4.009009     22.584657     22.584657     45.169313
     -3.998999     21.079569     21.079569     42.159137
     -3.988989     21.406874     21.406874     42.813748
     -3.978979     23.513659     23.513659     47.027318
     -3.968969     27.109097     27.109097     54.218194
     -3.958959     31.797770     31.797770     63.595540
     -3.948949     37.172680     37.172680     74.345360
     -3.938939     42.862918     42.862918     85.725836
     -3.928929     48.560841     48.560841     97.121681
     -3.918919     54.045566     54.045566    108.091131
     -3.908909     59.190535     59.190535    118.381070
     -3.898899     63.927323     63.927323    127.854646
     -3.888889     68.156849     68.156849    136.313699
     -3.878879     71.641931     71.641931    143.283861
     -3.868869     73.947976     73.947976    147.895952
     -3.858859     74.492216     74.492216    148.984432
     -3.848849     72.712831     72.712831    145.425663
     -3.838839     68.303149     68.303149    136.606298
     -3.828829     61.410646     61.410646    122.821292
     -3.818819     52.703723     52.703723    105.407446
     -3.808809     43.262167     43.262167     86.524335
     -3.798799     34.323026     34.323026     68.646053
     -3.788789     26.972937     26.972937     53.945874
     -3.778779     21.892987     21.892987     43.785975
     -3.768769     19.231994     19.231994     38.463988
     -3.758759     18.631137     18.631137     37.262275
     -3.748749     19.374731     19.374731     38.749463
     -3.738739     20.614279     20.614279     41.228558
     -3.728729     21.605748     21.605748     43.211495
     -3.718719     21.905168     21.905168     43.810335
     -3.708709     21.478707     21.478707     42.957415
     -3.698699     20.698966     20.698966     41.397931
     -3.688689     20.221403     20.221403     40.442807
     -3.678679     20.764501     20.764501     41.529002
     -3.668669     22.850419     22.850419     45.700837
     -3.658659     26.588216     26.588216     53.176432
     -3.648649     31.582540     31.582540     63.165080
     -3.638639     37.014815     37.014815     74.029631
     -3.628629     41.877075     41.877075     83.754150
     -3.618619     45.270210     45.270210     90.540419
     -3.608609     46.648594     46.648594     93.297187
     -3.598599     45.923508     45.923508     91.847017
     -3.588589     43.410729     43.410729     86.821458
     -3.578579     39.676010     39.676010     79.352021
     -3.568569     35.356209     35.356209     70.712418
     -3.558559     31.011863     31.011863     62.023726
     -3.548549     27.031111     27.031111     54.062221
     -3.538539     23.586105     23.586105     47.172210
     -3.528529     20.644046     20.644046     41.288092
     -3.518519     18.034740     18.034740     36.069480
     -3.508509     15.559752     15.559752     31.119504
     -3.498498     13.103972     13.103972     26.207944
     -3.488488     10.702394     10.702394     21.404789
     -3.478478      8.535067      8.535067     17.070134
     -3.468468      6.858704      6.858704     13.717408
     -3.458458      5.909596      5.909596     11.819192
     -3.448448      5.815668      5.815668     11.631336
     -3.438438      6.542671      6.542671     13.085343
     -3.428428      7.886280      7.886280     15.772561
     -3.418418      9.514895      9.514895     19.029791
     -3.408408     11.060466     11.060466     22.120932
     -3.398398     12.238291     12.238291     24.476582
     -3.388388     12.956116     12.956116     25.912232
     -3.378378     13.365109     13.365109     26.730218
     -3.368368     13.824202     13.824202     27.648404
     -3.358358     14.788738     14.788738     29.577476
     -3.348348     16.669217     16.669217     33.338434
     -3.338338     19.711908     19.711908     39.423817
     -3.328328     23.928586     23.928586     47.857172
     -3.318318     29.071431     29.071431     58.142862
     -3.308308     34.639380     34.639380     69.278761
     -3.298298     39.918889     39.918889     79.837779
     -3.288288     44.080835     44.080835     88.161670
     -3.278278     46.345412     46.345412     92.690823
     -3.268268     46.184352     46.184352     92.368703
     -3.258258     43.486496     43.486496     86.972992
     -3.248248     38.609054     38.609054     77.218108
     -3.238238     32.284232     32.284232     64.568464
     -3.228228     25.419812     25.419812     50.839624
     -3.218218     18.877844     18.877844     37.755689
     -3.208208     13.313210     13.313210     26.626420
     -3.198198      9.112870      9.112870     18.225740
     -3.188188      6.426553      6.426553     12.853106
     -3.178178      5.246402      5.246402     10.492803
     -3.168168      5.486851      5.486851     10.973703
     -3.158158      7.031995      7.031995     14.063990
     -3.148148      9.743290      9.743290     19.486579
     -3.138138     13.441611     13.441611     26.883223
     -3.128128     17.884882     17.884882     35.769763
     -3.118118     22.755930     22.755930     45.511860
     -3.108108     27.664718     27.664718     55.329435
     -3.098098     32.165714     32.165714     64.331427
     -3.088088     35.796405     35.796405     71.592810
     -3.078078     38.144961     38.144961     76.289922
     -3.068068     38.941436     38.941436     77.882871
     -3.058058     38.140940     38.140940     76.281880
     -3.048048     35.951274     35.951274     71.902547
     -3.038038     32.774261     32.774261     65.548522
     -3.028028     29.077390     29.077390     58.154780
     -3.018018     25.258738     25.258738     50.517475
     -3.008008     21.576408     21.576408     43.152815
     -2.997998     18.173977     18.173977     36.347955
     -2.987988     15.173399     15.173399     30.346799
     -2.977978     12.768653     12.768653     25.537307
     -2.967968     11.259607     11.259607     22.519215
     -2.957958     11.004321     11.004321     22.008643
     -2.947948     12.309545     12.309545     24.619089
     -2.937938     15.302125     15.302125     30.604250
     -2.927928     19.827249     19.827249     39.654498
     -2.917918     25.412012     25.412012     50.824023
     -2.907908     31.319115     31.319115     62.638231
     -2.897898     36.692207     36.692207     73.384413
     -2.887888     40.760768     40.760768     81.521535
     -2.877878     43.039903     43.039903     86.079806
     -2.867868     43.448763     43.448763     86.897525
     -2.857858     42.295030     42.295030     84.590060
     -2.847848     40.127133     40.127133     80.254265
     -2.837838     37.515826     37.515826     75.031652
     -2.827828     34.860657     34.860657     69.721314
     -2.817818     32.304209     32.304209     64.608418
     -2.807808     29.782208     29.782208     59.564417
     -2.797798     27.168666     27.168666     54.337333
     -2.787788     24.429152     24.429152     48.858303
     -2.777778     21.697074     21.697074     43.394149
     -2.767768     19.236058     19.236058     38.472115
     -2.757758     17.318620     17.318620     34.637239
     -2.747748     16.099061     16.099061     32.198122
     -2.737738     15.558929     15.558929     31.117858
     -2.727728     15.555951     15.555951     31.111902
     -2.717718     15.940110     15.940110     31.880219
     -2.707708     16.655773     16.655773     33.311546
     -2.697698     17.757071     17.757071     35.514143
     -2.687688     19.322770     19.322770     38.645541
     -2.677678     21.329261     21.329261     42.658523
     -2.667668     23.575914     23.575914     47.151827
     -2.657658     25.727466     25.727466     51.454931
     -2.647648     27.459699     27.459699     54.919398
     -2.637638     28.620692     28.620692     57.241384
     -2.627628     29.304165     29.304165     58.608330
     -2.617618     29.787253     29.787253     59.574506
     -2.607608     30.373108     30.373108     60.746217
     -2.597598     31.235280     31.235280     62.470561
     -2.587588     32.347298     32.347298     64.694596
     -2.577578     33.513777     33.513777     67.027554
     -2.567568     34.455199     34.455199     68.910397
     -2.557558     34.885131     34.885131     69.770261
     -2.547548     34.556262     34.556262     69.112523
     -2.537538     33.296815     33.296815     66.593629
     -2.527528     31.066880     31.066880     62.133759
     -2.517518     28.029577     28.029577     56.059153
     -2.507508     24.590638     24.590638     49.181276
     -2.497497     21.353826     21.353826     42.707652
     -2.487487     18.978884     18.978884     37.957768
     -2.477477     17.986229     17.986229     35.972459
     -2.467467     18.589250     18.589250     37.178501
     -2.457457     20.629263     20.629263     41.258525
     -2.447447     23.644932     23.644932     47.289865
     -2.437437     27.049414     27.049414     54.098828
     -2.427427     30.340237     30.340237     60.680474
     -2.417417     33.250102     33.250102     66.500204
     -2.407407     35.771081     35.771081     71.542162
     -2.397397     38.042961     38.042961     76.085922
     -2.387387     40.163324     40.163324     80.326649
     -2.377377     42.019541     42.019541     84.039082
     -2.367367     43.237425     43.237425     86.474850
     -2.357357     43.287030     43.287030     86.574059
     -2.347347     41.707017     41.707017     83.414033
     -2.337337     38.344985     38.344985     76.689970
     -2.327327     33.497736     33.497736     66.995472
     -2.317317     27.882633     27.882633     55.765265
     -2.307307     22.453308     22.453308     44.906616
     -2.297297     18.142660     18.142660     36.285321
     -2.287287     15.636032     15.636032     31.272063
     -2.277277     15.245183     15.245183     30.490366
     -2.267267     16.898158     16.898158     33.796316
     -2.257257     20.216091     20.216091     40.432182
     -2.247247     24.631477     24.631477     49.262955
     -2.237237     29.507795     29.507795     59.015591
     -2.227227     34.234230     34.234230     68.468459
     -2.217217     38.283894     38.283894     76.567788
     -2.207207     41.238612     41.238612     82.477224
     -2.197197     42.796953     42.796953     85.593906
     -2.187187     42.788234     42.788234     85.576468
     -2.177177     41.205327     41.205327     82.410655
     -2.167167     38.243839     38.243839     76.487679
     -2.157157     34.310232     34.310232     68.620464
     -2.147147     29.960156     29.960156     59.920313
     -2.137137     25.761744     25.761744     51.523487
     -2.127127     22.130150     22.130150     44.260301
     -2.117117     19.211905     19.211905     38.423810
     -2.107107     16.881296     16.881296     33.762593
     -2.097097     14.851527     14.851527     29.703054
     -2.087087     12.839545     12.839545     25.679090
     -2.077077     10.698369     10.698369     21.396737
     -2.067067      8.458459      8.458459     16.916918
     -2.057057      6.277166      6.277166     12.554332
     -2.047047      4.342549      4.342549      8.685097
     -2.037037      2.788965      2.788965      5.577930
     -2.027027      1.659228      1.659228      3.318456
     -2.017017      0.914522      0.914522      1.829044
     -2.007007      0.471026      0.471026      0.942052
     -1.996997      0.239202      0.239202      0.478403
     -1.986987      0.151891      0.151891      0.303783
     -1.976977      0.179544      0.179544      0.359088
     -1.966967      0.337520      0.337520      0.675040
     -1.956957      0.690053      0.690053      1.380105
     -1.946947      1.350658      1.350658      2.701315
     -1.936937      2.473634      2.473634      4.947269
     -1.926927      4.229396      4.229396      8.458791
     -1.916917      6.759923      6.759923     13.519847
     -1.906907     10.119192     10.119192     20.238383
     -1.896897     14.213603     14.213603     28.427207
     -1.886887     18.764556     18.764556     37.529112
     -1.876877     23.315487     23.315487     46.630975
     -1.866867     27.297520     27.297520     54.595039
     -1.856857     30.150961     30.150961     60.301923
     -1.846847     31.475986     31.475986     62.951973
     -1.836837     31.162013     31.162013     62.324026
     -1.826827     29.436489     29.436489     58.872977
     -1.816817     26.795364     26.795364     53.590728
     -1.806807     23.829481     23.829481     47.658962
     -1.796797     21.018373     21.018373     42.036747
     -1.786787     18.587354     18.587354     37.174708
     -1.776777     16.493054     16.493054     32.986109
     -1.766767     14.532075     14.532075     29.064150
     -1.756757     12.502111     12.502111     25.004221
     -1.746747     10.326255     10.326255     20.652510
     -1.736737      8.086587      8.086587     16.173173
     -1.726727      5.973125      5.973125     11.946249
     -1.716717      4.197708      4.197708      8.395415
     -1.706707      2.926458      2.926458      5.852915
     -1.696697      2.256254      2.256254      4.512508
     -1.686687      2.225292      2.225292      4.450584
     -1.676677      2.828531      2.828531      5.657063
     -1.666667      4.013792      4.013792      8.027584
     -1.656657      5.656402      5.656402     11.312804
     -1.646647      7.534247      7.534247     15.068495
     -1.636637      9.335329      9.335329     18.670658
     -1.626627     10.718138     10.718138     21.436277
