# EIG2DOS: Utility for SIESTA to obtain the electronic density of states
#  E. Artacho, Apr 1999, A. Garcia, Apr 2012
#  Nick R. Papior, Feb 2017
# ------------------------------------------
# Eigenvalues calculated from a non-polarized calculation
# Eigenvalues read from siesta.EIG
# Kpoint weights read from siesta.KP
# Using smearing parameter:   0.0500
# Using 1000 points in the energy range
# Selected bands: 1 to: 2981
# Emin, Emax in file for selected band(s):    -27.2519382    218.3848170
# Nbands, Nspin, Nk   =   2981     1     1
# E_F                 =    -4.2150 eV --> (shifted to ZERO)
# Broadening          =     0.0500 eV
#
#        E            N(up)  (=)   N(down)         Ntot
     -5.000000     33.861270     33.861270     67.722541
     -4.989990     38.292660     38.292660     76.585320
     -4.979980     42.117285     42.117285     84.234570
     -4.969970     44.699302     44.699302     89.398604
     -4.959960     45.579291     45.579291     91.158583
     -4.949950     44.626718     44.626718     89.253437
     -4.939940     42.091348     42.091348     84.182695
     -4.929930     38.549553     38.549553     77.099106
     -4.919920     34.785768     34.785768     69.571535
     -4.909910     31.656938     31.656938     63.313877
     -4.899900     29.961041     29.961041     59.922083
     -4.889890     30.300189     30.300189     60.600378
     -4.879880     32.928929     32.928929     65.857858
     -4.869870     37.615940     37.615940     75.231880
     -4.859860     43.591345     43.591345     87.182689
     -4.849850     49.655494     49.655494     99.310988
     -4.839840     54.465782     54.465782    108.931565
     -4.829830     56.921939     56.921939    113.843878
     -4.819820     56.498722     56.498722    112.997444
     -4.809810     53.381417     53.381417    106.762834
     -4.799800     48.348523     48.348523     96.697045
     -4.789790     42.466527     42.466527     84.933054
     -4.779780     36.741804     36.741804     73.483609
     -4.769770     31.871628     31.871628     63.743255
     -4.759760     28.163517     28.163517     56.327035
     -4.749750     25.603068     25.603068     51.206135
     -4.739740     23.995794     23.995794     47.991587
     -4.729730     23.104398     23.104398     46.208795
     -4.719720     22.732133     22.732133     45.464267
     -4.709710     22.740239     22.740239     45.480479
     -4.699700     23.017629     23.017629     46.035258
     -4.689690     23.439287     23.439287     46.878574
     -4.679680     23.852760     23.852760     47.705521
     -4.669670     24.116599     24.116599     48.233197
     -4.659660     24.183870     24.183870     48.367741
     -4.649650     24.190756     24.190756     48.381513
     -4.639640     24.492086     24.492086     48.984172
     -4.629630     25.595696     25.595696     51.191392
     -4.619620     27.987988     27.987988     55.975977
     -4.609610     31.901343     31.901343     63.802686
     -4.599600     37.122780     37.122780     74.245560
     -4.589590     42.950405     42.950405     85.900809
     -4.579580     48.353047     48.353047     96.706094
     -4.569570     52.295420     52.295420    104.590839
     -4.559560     54.103152     54.103152    108.206304
     -4.549550     53.710332     53.710332    107.420664
     -4.539540     51.678299     51.678299    103.356599
     -4.529530     48.975600     48.975600     97.951200
     -4.519520     46.613084     46.613084     93.226168
     -4.509510     45.285170     45.285170     90.570340
     -4.499499     45.156144     45.156144     90.312288
     -4.489489     45.860677     45.860677     91.721354
     -4.479479     46.695767     46.695767     93.391534
     -4.469469     46.907983     46.907983     93.815965
     -4.459459     45.954850     45.954850     91.909700
     -4.449449     43.648626     43.648626     87.297251
     -4.439439     40.155532     40.155532     80.311065
     -4.429429     35.889348     35.889348     71.778696
     -4.419419     31.372490     31.372490     62.744979
     -4.409409     27.126951     27.126951     54.253901
     -4.399399     23.614879     23.614879     47.229759
     -4.389389     21.206530     21.206530     42.413059
     -4.379379     20.141794     20.141794     40.283589
     -4.369369     20.476259     20.476259     40.952517
     -4.359359     22.040236     22.040236     44.080472
     -4.349349     24.455420     24.455420     48.910841
     -4.339339     27.231447     27.231447     54.462894
     -4.329329     29.917727     29.917727     59.835454
     -4.319319     32.247689     32.247689     64.495377
     -4.309309     34.209376     34.209376     68.418752
     -4.299299     36.008836     36.008836     72.017672
     -4.289289     37.939380     37.939380     75.878760
     -4.279279     40.206553     40.206553     80.413105
     -4.269269     42.774709     42.774709     85.549419
     -4.259259     45.297996     45.297996     90.595991
     -4.249249     47.177938     47.177938     94.355875
     -4.239239     47.749114     47.749114     95.498229
     -4.229229     46.537601     46.537601     93.075203
     -4.219219     43.487374     43.487374     86.974748
     -4.209209     39.043321     39.043321     78.086642
     -4.199199     34.035252     34.035252     68.070503
     -4.189189     29.403669     29.403669     58.807339
     -4.179179     25.889874     25.889874     51.779747
     -4.169169     23.829386     23.829386     47.658772
     -4.159159     23.130107     23.130107     46.260214
     -4.149149     23.422267     23.422267     46.844533
     -4.139139     24.289841     24.289841     48.579681
     -4.129129     25.467130     25.467130     50.934261
     -4.119119     26.911761     26.911761     53.823522
     -4.109109     28.727252     28.727252     57.454504
     -4.099099     30.979839     30.979839     61.959678
     -4.089089     33.510180     33.510180     67.020360
     -4.079079     35.854760     35.854760     71.709520
     -4.069069     37.346431     37.346431     74.692863
     -4.059059     37.369550     37.369550     74.739100
     -4.049049     35.650664     35.650664     71.301328
     -4.039039     32.432085     32.432085     64.864169
     -4.029029     28.432042     28.432042     56.864083
     -4.019019     24.610139     24.610139     49.220277
     -4.009009     21.857679     21.857679     43.715358
     -3.998999     20.757599     20.757599     41.515198
     -3.988989     21.500838     21.500838     43.001675
     -3.978979     23.951574     23.951574     47.903147
     -3.968969     27.785151     27.785151     55.570302
     -3.958959     32.614757     32.614757     65.229513
     -3.948949     38.065360     38.065360     76.130720
     -3.938939     43.804306     43.804306     87.608612
     -3.928929     49.558348     49.558348     99.116696
     -3.918919     55.129120     55.129120    110.258241
     -3.908909     60.389242     60.389242    120.778483
     -3.898899     65.234027     65.234027    130.468055
     -3.888889     69.491423     69.491423    138.982846
     -3.878879     72.834504     72.834504    145.669007
     -3.868869     74.761371     74.761371    149.522743
     -3.858859     74.685672     74.685672    149.371344
     -3.848849     72.125923     72.125923    144.251847
     -3.838839     66.924522     66.924522    133.849043
     -3.828829     59.400379     59.400379    118.800759
     -3.818819     50.358616     50.358616    100.717232
     -3.808809     40.937922     40.937922     81.875844
     -3.798799     32.343069     32.343069     64.686139
     -3.788789     25.554335     25.554335     51.108670
     -3.778779     21.108721     21.108721     42.217442
     -3.768769     19.013954     19.013954     38.027908
     -3.758759     18.806595     18.806595     37.613190
     -3.748749     19.723160     19.723160     39.446320
     -3.738739     20.929918     20.929918     41.859835
     -3.728729     21.751983     21.751983     43.503966
     -3.718719     21.848762     21.848762     43.697525
     -3.708709     21.295330     21.295330     42.590660
     -3.698699     20.547013     20.547013     41.094026
     -3.688689     20.288770     20.288770     40.577541
     -3.678679     21.201738     21.201738     42.403475
     -3.668669     23.710958     23.710958     47.421915
     -3.658659     27.797867     27.797867     55.595734
     -3.648649     32.952527     32.952527     65.905054
     -3.638639     38.295885     38.295885     76.591770
     -3.628629     42.833715     42.833715     85.667430
     -3.618619     45.744588     45.744588     91.489176
     -3.608609     46.590385     46.590385     93.180769
     -3.598599     45.380735     45.380735     90.761470
     -3.588589     42.495597     42.495597     84.991195
     -3.578579     38.526524     38.526524     77.053047
     -3.568569     34.107320     34.107320     68.214640
     -3.558559     29.777943     29.777943     59.555885
     -3.548549     25.895125     25.895125     51.790251
     -3.538539     22.593089     22.593089     45.186178
     -3.528529     19.801507     19.801507     39.603013
     -3.518519     17.323267     17.323267     34.646535
     -3.508509     14.951949     14.951949     29.903898
     -3.498498     12.583868     12.583868     25.167735
     -3.488488     10.276425     10.276425     20.552850
     -3.478478      8.230304      8.230304     16.460608
     -3.468468      6.710321      6.710321     13.420641
     -3.458458      5.943343      5.943343     11.886686
     -3.448448      6.031546      6.031546     12.063093
     -3.438438      6.905128      6.905128     13.810256
     -3.428428      8.325687      8.325687     16.651373
     -3.418418      9.943976      9.943976     19.887952
     -3.408408     11.405767     11.405767     22.811534
     -3.398398     12.481012     12.481012     24.962025
     -3.388388     13.171794     13.171794     26.343587
     -3.378378     13.750686     13.750686     27.501371
     -3.368368     14.703220     14.703220     29.406440
     -3.358358     16.586471     16.586471     33.172942
     -3.348348     19.847558     19.847558     39.695117
     -3.338338     24.654371     24.654371     49.308742
     -3.328328     30.779763     30.779763     61.559525
     -3.318318     37.567445     37.567445     75.134890
     -3.308308     44.002495     44.002495     88.004990
     -3.298298     48.900446     48.900446     97.800891
     -3.288288     51.196206     51.196206    102.392412
     -3.278278     50.258035     50.258035    100.516069
     -3.268268     46.107462     46.107462     92.214924
     -3.258258     39.439168     39.439168     78.878336
     -3.248248     31.417188     31.417188     62.834377
     -3.238238     23.331725     23.331725     46.663450
     -3.228228     16.264338     16.264338     32.528676
     -3.218218     10.887785     10.887785     21.775569
     -3.208208      7.440750      7.440750     14.881500
     -3.198198      5.828662      5.828662     11.657324
     -3.188188      5.763035      5.763035     11.526069
     -3.178178      6.873339      6.873339     13.746679
     -3.168168      8.776414      8.776414     17.552828
     -3.158158     11.126183     11.126183     22.252366
     -3.148148     13.666671     13.666671     27.333342
     -3.138138     16.281335     16.281335     32.562670
     -3.128128     19.002464     19.002464     38.004928
     -3.118118     21.946976     21.946976     43.893953
     -3.108108     25.185925     25.185925     50.371850
     -3.098098     28.608379     28.608379     57.216758
     -3.088088     31.863804     31.863804     63.727608
     -3.078078     34.434855     34.434855     68.869711
     -3.068068     35.818316     35.818316     71.636633
     -3.058058     35.723076     35.723076     71.446152
     -3.048048     34.178830     34.178830     68.357661
     -3.038038     31.500924     31.500924     63.001849
     -3.028028     28.142312     28.142312     56.284623
     -3.018018     24.526076     24.526076     49.052153
     -3.008008     20.951552     20.951552     41.903104
     -2.997998     17.609192     17.609192     35.218383
     -2.987988     14.668047     14.668047     29.336094
     -2.977978     12.362276     12.362276     24.724553
     -2.967968     11.015919     11.015919     22.031837
     -2.957958     10.988407     10.988407     21.976814
     -2.947948     12.564169     12.564169     25.128338
     -2.937938     15.829415     15.829415     31.658830
     -2.927928     20.580156     20.580156     41.160312
     -2.917918     26.297652     26.297652     52.595304
     -2.907908     32.213869     32.213869     64.427739
     -2.897898     37.465874     37.465874     74.931748
     -2.887888     41.304222     41.304222     82.608444
     -2.877878     43.288672     43.288672     86.577344
     -2.867868     43.395211     43.395211     86.790422
     -2.857858     41.984909     41.984909     83.969817
     -2.847848     39.641517     39.641517     79.283034
     -2.837838     36.945142     36.945142     73.890284
     -2.827828     34.281016     34.281016     68.562032
     -2.817818     31.765320     31.765320     63.530641
     -2.807808     29.310266     29.310266     58.620533
     -2.797798     26.779438     26.779438     53.558876
     -2.787788     24.140855     24.140855     48.281710
     -2.777778     21.533587     21.533587     43.067174
     -2.767768     19.218593     19.218593     38.437186
     -2.757758     17.453513     17.453513     34.907026
     -2.747748     16.373836     16.373836     32.747671
     -2.737738     15.953925     15.953925     31.907850
     -2.727728     16.066408     16.066408     32.132815
     -2.717718     16.591896     16.591896     33.183791
     -2.707708     17.496820     17.496820     34.993641
     -2.697698     18.820114     18.820114     37.640229
     -2.687688     20.576672     20.576672     41.153345
     -2.677678     22.651143     22.651143     45.302287
     -2.667668     24.770984     24.770984     49.541969
     -2.657658     26.597111     26.597111     53.194221
     -2.647648     27.886432     27.886432     55.772863
     -2.637638     28.623411     28.623411     57.246822
     -2.627628     29.031542     29.031542     58.063084
     -2.617618     29.452740     29.452740     58.905480
     -2.607608     30.167694     30.167694     60.335388
     -2.597598     31.261737     31.261737     62.523474
     -2.587588     32.599803     32.599803     65.199606
     -2.577578     33.897391     33.897391     67.794783
     -2.567568     34.823113     34.823113     69.646226
     -2.557558     35.076037     35.076037     70.152075
     -2.547548     34.428905     34.428905     68.857809
     -2.537538     32.766265     32.766265     65.532530
     -2.527528     30.140239     30.140239     60.280479
     -2.517518     26.826346     26.826346     53.652691
     -2.507508     23.329704     23.329704     46.659409
     -2.497497     20.301266     20.301266     40.602532
     -2.487487     18.370993     18.370993     36.741986
     -2.477477     17.956630     17.956630     35.913260
     -2.467467     19.128689     19.128689     38.257377
     -2.457457     21.592965     21.592965     43.185931
     -2.447447     24.802989     24.802989     49.605978
     -2.437437     28.159451     28.159451     56.318902
     -2.427427     31.214805     31.214805     62.429611
     -2.417417     33.795727     33.795727     67.591454
     -2.407407     35.989071     35.989071     71.978141
     -2.397397     37.997467     37.997467     75.994935
     -2.387387     39.933345     39.933345     79.866690
     -2.377377     41.655387     41.655387     83.310774
     -2.367367     42.739003     42.739003     85.478006
     -2.357357     42.612421     42.612421     85.224842
     -2.347347     40.806965     40.806965     81.613930
     -2.337337     37.206149     37.206149     74.412299
     -2.327327     32.171951     32.171951     64.343903
     -2.317317     26.486214     26.486214     52.972428
     -2.307307     21.137018     21.137018     42.274036
     -2.297297     17.048896     17.048896     34.097791
     -2.287287     14.864615     14.864615     29.729231
     -2.277277     14.840795     14.840795     29.681590
     -2.267267     16.858179     16.858179     33.716359
     -2.257257     20.507352     20.507352     41.014704
     -2.247247     25.203292     25.203292     50.406585
     -2.237237     30.295097     30.295097     60.590193
     -2.227227     35.153179     35.153179     70.306358
     -2.217217     39.228040     39.228040     78.456079
     -2.207207     42.084164     42.084164     84.168329
     -2.197197     43.421338     43.421338     86.842676
     -2.187187     43.098794     43.098794     86.197588
     -2.177177     41.167905     41.167905     82.335810
     -2.167167     37.897527     37.897527     75.795054
     -2.157157     33.757781     33.757781     67.515562
     -2.147147     29.333624     29.333624     58.667247
     -2.137137     25.175857     25.175857     50.351715
     -2.127127     21.644093     21.644093     43.288187
     -2.117117     18.817550     18.817550     37.635100
     -2.107107     16.522519     16.522519     33.045038
     -2.097097     14.462733     14.462733     28.925465
     -2.087087     12.382285     12.382285     24.764570
     -2.077077     10.178398     10.178398     20.356796
     -2.067067      7.918699      7.918699     15.837399
     -2.057057      5.775671      5.775671     11.551341
     -2.047047      3.930800      3.930800      7.861601
     -2.037037      2.502929      2.502929      5.005858
     -2.027027      1.527828      1.527828      3.055656
     -2.017017      0.983158      0.983158      1.966315
     -2.007007      0.833729      0.833729      1.667458
     -1.996997      1.070509      1.070509      2.141018
     -1.986987      1.725996      1.725996      3.451993
     -1.976977      2.860313      2.860313      5.720626
     -1.966967      4.523333      4.523333      9.046667
     -1.956957      6.708085      6.708085     13.416170
     -1.946947      9.317214      9.317214     18.634428
     -1.936937     12.162145     12.162145     24.324290
     -1.926927     15.000423     15.000423     30.000845
     -1.916917     17.595980     17.595980     35.191959
     -1.906907     19.772876     19.772876     39.545752
     -1.896897     21.436846     21.436846     42.873692
     -1.886887     22.559580     22.559580     45.119159
     -1.876877     23.143982     23.143982     46.287963
     -1.866867     23.198616     23.198616     46.397231
     -1.856857     22.740277     22.740277     45.480554
     -1.846847     21.822039     21.822039     43.644078
     -1.836837     20.563536     20.563536     41.127072
     -1.826827     19.153010     19.153010     38.306020
     -1.816817     17.803160     17.803160     35.606321
     -1.806807     16.671561     16.671561     33.343122
     -1.796797     15.785575     15.785575     31.571149
     -1.786787     15.019803     15.019803     30.039607
     -1.776777     14.149759     14.149759     28.299518
     -1.766767     12.960526     12.960526     25.921052
     -1.756757     11.353981     11.353981     22.707962
     -1.746747      9.398443      9.398443     18.796887
     -1.736737      7.300468      7.300468     14.600936
     -1.726727      5.323842      5.323842     10.647683
     -1.716717      3.705068      3.705068      7.410135
     -1.706707      2.605272      2.605272      5.210545
     -1.696697      2.107454      2.107454      4.214907
     -1.686687      2.238590      2.238590      4.477180
     -1.676677      2.985816      2.985816      5.971631
     -1.666667      4.287539      4.287539      8.575077
     -1.656657      6.004560      6.004560     12.009119
     -1.646647      7.897853      7.897853     15.795705
     -1.636637      9.645010      9.645010     19.290020
     -1.626627     10.910795     10.910795     21.821589
