# EIG2DOS: Utility for SIESTA to obtain the electronic density of states
#  E. Artacho, Apr 1999, A. Garcia, Apr 2012
#  Nick R. Papior, Feb 2017
# ------------------------------------------
# Eigenvalues calculated from a non-polarized calculation
# Eigenvalues read from siesta.EIG
# Kpoint weights read from siesta.KP
# Using smearing parameter:   0.0500
# Using 1000 points in the energy range
# Selected bands: 1 to: 2981
# Emin, Emax in file for selected band(s):    -27.4367140    218.4145700
# Nbands, Nspin, Nk   =   2981     1     1
# E_F                 =    -4.1873 eV --> (shifted to ZERO)
# Broadening          =     0.0500 eV
#
#        E            N(up)  (=)   N(down)         Ntot
     -5.000000     32.278878     32.278878     64.557757
     -4.989990     37.595087     37.595087     75.190175
     -4.979980     42.518327     42.518327     85.036655
     -4.969970     46.160608     46.160608     92.321216
     -4.959960     47.819131     47.819131     95.638263
     -4.949950     47.217357     47.217357     94.434714
     -4.939940     44.606902     44.606902     89.213804
     -4.929930     40.708023     40.708023     81.416045
     -4.919920     36.538067     36.538067     73.076135
     -4.909910     33.201880     33.201880     66.403760
     -4.899900     31.691160     31.691160     63.382320
     -4.889890     32.699049     32.699049     65.398097
     -4.879880     36.447013     36.447013     72.894026
     -4.869870     42.554390     42.554390     85.108780
     -4.859860     50.021634     50.021634    100.043268
     -4.849850     57.395470     57.395470    114.790941
     -4.839840     63.117200     63.117200    126.234401
     -4.829830     65.956449     65.956449    131.912897
     -4.819820     65.366282     65.366282    130.732564
     -4.809810     61.611940     61.611940    123.223881
     -4.799800     55.622822     55.622822    111.245645
     -4.789790     48.642161     48.642161     97.284321
     -4.779780     41.830993     41.830993     83.661985
     -4.769770     35.981544     35.981544     71.963088
     -4.759760     31.420994     31.420994     62.841987
     -4.749750     28.089661     28.089661     56.179321
     -4.739740     25.710680     25.710680     51.421361
     -4.729730     23.955942     23.955942     47.911884
     -4.719720     22.546492     22.546492     45.092983
     -4.709710     21.277274     21.277274     42.554549
     -4.699700     19.998568     19.998568     39.997136
     -4.689690     18.602202     18.602202     37.204404
     -4.679680     17.045503     17.045503     34.091006
     -4.669670     15.410470     15.410470     30.820941
     -4.659660     13.961571     13.961571     27.923142
     -4.649650     13.153345     13.153345     26.306690
     -4.639640     13.555038     13.555038     27.110076
     -4.629630     15.693778     15.693778     31.387556
     -4.619620     19.854644     19.854644     39.709288
     -4.609610     25.903782     25.903782     51.807564
     -4.599600     33.211201     33.211201     66.422402
     -4.589590     40.732952     40.732952     81.465905
     -4.579580     47.261194     47.261194     94.522388
     -4.569570     51.776248     51.776248    103.552497
     -4.559560     53.772334     53.772334    107.544667
     -4.549550     53.419469     53.419469    106.838939
     -4.539540     51.484149     51.484149    102.968298
     -4.529530     49.034709     49.034709     98.069418
     -4.519520     47.050703     47.050703     94.101406
     -4.509510     46.092579     46.092579     92.185159
     -4.499499     46.154621     46.154621     92.309243
     -4.489489     46.741344     46.741344     93.482688
     -4.479479     47.115217     47.115217     94.230434
     -4.469469     46.601032     46.601032     93.202064
     -4.459459     44.822978     44.822978     89.645956
     -4.449449     41.794381     41.794381     83.588762
     -4.439439     37.853834     37.853834     75.707669
     -4.429429     33.508768     33.508768     67.017537
     -4.419419     29.275770     29.275770     58.551539
     -4.409409     25.584561     25.584561     51.169123
     -4.399399     22.756957     22.756957     45.513914
     -4.389389     21.021343     21.021343     42.042686
     -4.379379     20.511390     20.511390     41.022780
     -4.369369     21.229887     21.229887     42.459774
     -4.359359     23.006349     23.006349     46.012697
     -4.349349     25.500201     25.500201     51.000402
     -4.339339     28.280112     28.280112     56.560224
     -4.329329     30.959926     30.959926     61.919853
     -4.319319     33.329413     33.329413     66.658827
     -4.309309     35.412427     35.412427     70.824855
     -4.299299     37.417624     37.417624     74.835249
     -4.289289     39.596389     39.596389     79.192778
     -4.279279     42.064244     42.064244     84.128489
     -4.269269     44.661383     44.661383     89.322766
     -4.259259     46.920933     46.920933     93.841866
     -4.249249     48.179582     48.179582     96.359165
     -4.239239     47.808557     47.808557     95.617115
     -4.229229     45.481400     45.481400     90.962799
     -4.219219     41.360715     41.360715     82.721430
     -4.209209     36.107684     36.107684     72.215368
     -4.199199     30.695041     30.695041     61.390082
     -4.189189     26.098278     26.098278     52.196556
     -4.179179     22.997829     22.997829     45.995658
     -4.169169     21.614954     21.614954     43.229909
     -4.159159     21.735593     21.735593     43.471185
     -4.149149     22.889765     22.889765     45.779531
     -4.139139     24.591392     24.591392     49.182784
     -4.129129     26.527058     26.527058     53.054116
     -4.119119     28.612469     28.612469     57.224937
     -4.109109     30.898278     30.898278     61.796556
     -4.099099     33.380796     33.380796     66.761592
     -4.089089     35.827996     35.827996     71.655992
     -4.079079     37.735407     37.735407     75.470813
     -4.069069     38.465150     38.465150     76.930299
     -4.059059     37.518018     37.518018     75.036035
     -4.049049     34.802407     34.802407     69.604813
     -4.039039     30.753809     30.753809     61.507618
     -4.029029     26.236426     26.236426     52.472853
     -4.019019     22.275535     22.275535     44.551071
     -4.009009     19.751054     19.751054     39.502107
     -3.998999     19.183732     19.183732     38.367464
     -3.988989     20.677540     20.677540     41.355079
     -3.978979     23.997208     23.997208     47.994417
     -3.968969     28.709392     28.709392     57.418784
     -3.958959     34.317498     34.317498     68.634996
     -3.948949     40.356053     40.356053     80.712106
     -3.938939     46.446066     46.446066     92.892132
     -3.928929     52.323512     52.323512    104.647023
     -3.918919     57.840192     57.840192    115.680383
     -3.908909     62.923121     62.923121    125.846241
     -3.898899     67.488220     67.488220    134.976440
     -3.888889     71.336238     71.336238    142.672477
     -3.878879     74.088182     74.088182    148.176364
     -3.868869     75.215203     75.215203    150.430406
     -3.858859     74.177047     74.177047    148.354094
     -3.848849     70.625775     70.625775    141.251550
     -3.838839     64.591832     64.591832    129.183663
     -3.828829     56.570200     56.570200    113.140400
     -3.818819     47.463588     47.463588     94.927176
     -3.808809     38.395844     38.395844     76.791688
     -3.798799     30.455720     30.455720     60.911440
     -3.788789     24.451144     24.451144     48.902287
     -3.778779     20.744391     20.744391     41.488783
     -3.768769     19.208182     19.208182     38.416364
     -3.758759     19.305730     19.305730     38.611460
     -3.748749     20.266126     20.266126     40.532252
     -3.738739     21.306458     21.306458     42.612915
     -3.728729     21.845085     21.845085     43.690170
     -3.718719     21.654744     21.654744     43.309489
     -3.708709     20.917201     20.917201     41.834402
     -3.698699     20.161237     20.161237     40.322474
     -3.688689     20.092080     20.092080     40.184160
     -3.678679     21.351151     21.351151     42.702303
     -3.668669     24.273944     24.273944     48.547888
     -3.658659     28.728291     28.728291     57.456583
     -3.648649     34.100711     34.100711     68.201423
     -3.638639     39.449692     39.449692     78.899383
     -3.628629     43.776895     43.776895     87.553791
     -3.618619     46.314250     46.314250     92.628500
     -3.608609     46.719626     46.719626     93.439251
     -3.598599     45.122027     45.122027     90.244054
     -3.588589     42.028552     42.028552     84.057105
     -3.578579     38.154712     38.154712     76.309423
     -3.568569     34.242963     34.242963     68.485926
     -3.558559     30.905970     30.905970     61.811940
     -3.548549     28.506474     28.506474     57.012947
     -3.538539     27.085697     27.085697     54.171394
     -3.528529     26.365075     26.365075     52.730151
     -3.518519     25.842879     25.842879     51.685759
     -3.508509     24.973860     24.973860     49.947720
     -3.498498     23.373833     23.373833     46.747667
     -3.488488     20.966865     20.966865     41.933730
     -3.478478     18.012274     18.012274     36.024549
     -3.468468     15.002620     15.002620     30.005239
     -3.458458     12.479968     12.479968     24.959936
     -3.448448     10.846487     10.846487     21.692974
     -3.438438     10.238547     10.238547     20.477094
     -3.428428     10.503118     10.503118     21.006236
     -3.418418     11.278369     11.278369     22.556738
     -3.408408     12.147595     12.147595     24.295190
     -3.398398     12.811903     12.811903     25.623807
     -3.388388     13.218899     13.218899     26.437799
     -3.378378     13.599061     13.599061     27.198121
     -3.368368     14.397247     14.397247     28.794494
     -3.358358     16.127671     16.127671     32.255343
     -3.348348     19.203841     19.203841     38.407681
     -3.338338     23.789907     23.789907     47.579814
     -3.328328     29.698967     29.698967     59.397934
     -3.318318     36.351510     36.351510     72.703019
     -3.308308     42.814026     42.814026     85.628052
     -3.298298     47.945456     47.945456     95.890912
     -3.288288     50.656214     50.656214    101.312428
     -3.278278     50.223442     50.223442    100.446884
     -3.268268     46.543771     46.543771     93.087541
     -3.258258     40.198882     40.198882     80.397764
     -3.248248     32.284389     32.284389     64.568778
     -3.238238     24.069835     24.069835     48.139670
     -3.228228     16.639960     16.639960     33.279920
     -3.218218     10.662011     10.662011     21.324021
     -3.208208      6.342659      6.342659     12.685319
     -3.198198      3.541522      3.541522      7.083044
     -3.188188      1.953801      1.953801      3.907603
     -3.178178      1.278264      1.278264      2.556527
     -3.168168      1.324698      1.324698      2.649396
     -3.158158      2.052619      2.052619      4.105239
     -3.148148      3.551159      3.551159      7.102318
     -3.138138      5.972033      5.972033     11.944066
     -3.128128      9.427829      9.427829     18.855659
     -3.118118     13.877528     13.877528     27.755056
     -3.108108     19.037804     19.037804     38.075607
     -3.098098     24.367209     24.367209     48.734418
     -3.088088     29.154333     29.154333     58.308667
     -3.078078     32.697523     32.697523     65.395047
     -3.068068     34.511811     34.511811     69.023622
     -3.058058     34.471568     34.471568     68.943135
     -3.048048     32.819889     32.819889     65.639779
     -3.038038     30.042132     30.042132     60.084264
     -3.028028     26.673262     26.673262     53.346523
     -3.018018     23.140297     23.140297     46.280594
     -3.008008     19.711435     19.711435     39.422871
     -2.997998     16.553948     16.553948     33.107897
     -2.987988     13.840922     13.840922     27.681844
     -2.977978     11.829522     11.829522     23.659045
     -2.967968     10.862475     10.862475     21.724950
     -2.957958     11.291786     11.291786     22.583572
     -2.947948     13.358858     13.358858     26.717717
     -2.937938     17.076757     17.076757     34.153513
     -2.927928     22.155931     22.155931     44.311862
     -2.917918     28.004304     28.004304     56.008608
     -2.907908     33.817261     33.817261     67.634521
     -2.897898     38.748147     38.748147     77.496294
     -2.887888     42.116945     42.116945     84.233891
     -2.877878     43.587676     43.587676     87.175352
     -2.867868     43.243025     43.243025     86.486049
     -2.857858     41.518156     41.518156     83.036311
     -2.847848     39.015057     39.015057     78.030115
     -2.837838     36.275800     36.275800     72.551599
     -2.827828     33.615206     33.615206     67.230412
     -2.817818     31.084295     31.084295     62.168590
     -2.807808     28.568080     28.568080     57.136159
     -2.797798     25.951740     25.951740     51.903481
     -2.787788     23.257418     23.257418     46.514836
     -2.777778     20.677782     20.677782     41.355564
     -2.767768     18.497143     18.497143     36.994285
     -2.757758     16.957378     16.957378     33.914755
     -2.747748     16.154858     16.154858     32.309717
     -2.737738     16.029162     16.029162     32.058324
     -2.727728     16.441008     16.441008     32.882015
     -2.717718     17.276500     17.276500     34.552999
     -2.707708     18.498334     18.498334     36.996668
     -2.697698     20.105483     20.105483     40.210967
     -2.687688     22.034489     22.034489     44.068979
     -2.677678     24.086324     24.086324     48.172647
     -2.667668     25.952147     25.952147     51.904293
     -2.657658     27.342020     27.342020     54.684039
     -2.647648     28.141126     28.141126     56.282253
     -2.637638     28.488429     28.488429     56.976859
     -2.627628     28.718032     28.718032     57.436064
     -2.617618     29.192500     29.192500     58.385000
     -2.607608     30.125144     30.125144     60.250289
     -2.597598     31.487199     31.487199     62.974397
     -2.587588     33.032386     33.032386     66.064771
     -2.577578     34.398271     34.398271     68.796542
     -2.567568     35.214903     35.214903     70.429806
     -2.557558     35.178441     35.178441     70.356881
     -2.547548     34.095675     34.095675     68.191349
     -2.537538     31.927802     31.927802     63.855605
     -2.527528     28.841911     28.841911     57.683823
     -2.517518     25.241101     25.241101     50.482202
     -2.507508     21.728616     21.728616     43.457232
     -2.497497     18.985747     18.985747     37.971495
     -2.487487     17.591072     17.591072     35.182145
     -2.477477     17.846834     17.846834     35.693667
     -2.467467     19.683799     19.683799     39.367598
     -2.457457     22.687807     22.687807     45.375614
     -2.447447     26.243749     26.243749     52.487498
     -2.437437     29.744942     29.744942     59.489883
     -2.427427     32.785641     32.785641     65.571281
     -2.417417     35.255688     35.255688     70.511376
     -2.407407     37.293520     37.293520     74.587040
     -2.397397     39.116093     39.116093     78.232186
     -2.387387     40.806039     40.806039     81.612079
     -2.377377     42.166434     42.166434     84.332868
     -2.367367     42.730476     42.730476     85.460952
     -2.357357     41.940038     41.940038     83.880075
     -2.347347     39.416629     39.416629     78.833258
     -2.337337     35.191997     35.191997     70.383994
     -2.327327     29.781255     29.781255     59.562510
     -2.317317     24.063322     24.063322     48.126644
     -2.307307     19.031020     19.031020     38.062039
     -2.297297     15.526574     15.526574     31.053148
     -2.287287     14.062339     14.062339     28.124679
     -2.277277     14.765004     14.765004     29.530008
     -2.267267     17.421184     17.421184     34.842369
     -2.257257     21.575235     21.575235     43.150471
     -2.247247     26.636619     26.636619     53.273238
     -2.237237     31.974627     31.974627     63.949255
     -2.227227     36.994581     36.994581     73.989162
     -2.217217     41.196423     41.196423     82.392846
     -2.207207     44.217614     44.217614     88.435227
     -2.197197     45.861533     45.861533     91.723065
     -2.187187     46.110483     46.110483     92.220966
     -2.177177     45.117837     45.117837     90.235673
     -2.167167     43.170006     43.170006     86.340012
     -2.157157     40.613232     40.613232     81.226464
     -2.147147     37.757051     37.757051     75.514102
     -2.137137     34.787927     34.787927     69.575854
     -2.127127     31.734637     31.734637     63.469274
     -2.117117     28.508098     28.508098     57.016195
     -2.107107     24.999062     24.999062     49.998124
     -2.097097     21.182890     21.182890     42.365779
     -2.087087     17.175969     17.175969     34.351938
     -2.077077     13.217091     13.217091     26.434182
     -2.067067      9.589436      9.589436     19.178871
     -2.057057      6.527504      6.527504     13.055009
     -2.047047      4.153430      4.153430      8.306861
     -2.037037      2.463893      2.463893      4.927785
     -2.027027      1.360631      1.360631      2.721261
     -2.017017      0.700809      0.700809      1.401617
     -2.007007      0.343508      0.343508      0.687016
     -1.996997      0.179670      0.179670      0.359340
     -1.986987      0.145140      0.145140      0.290280
     -1.976977      0.223323      0.223323      0.446647
     -1.966967      0.443826      0.443826      0.887653
     -1.956957      0.878734      0.878734      1.757469
     -1.946947      1.632712      1.632712      3.265423
     -1.936937      2.820779      2.820779      5.641558
     -1.926927      4.531094      4.531094      9.062189
     -1.916917      6.779073      6.779073     13.558146
     -1.906907      9.469180      9.469180     18.938360
     -1.896897     12.384355     12.384355     24.768710
     -1.886887     15.215386     15.215386     30.430771
     -1.876877     17.626234     17.626234     35.252467
     -1.866867     19.335695     19.335695     38.671389
     -1.856857     20.189486     20.189486     40.378972
     -1.846847     20.200758     20.200758     40.401515
     -1.836837     19.545536     19.545536     39.091071
     -1.826827     18.509160     18.509160     37.018319
     -1.816817     17.392871     17.392871     34.785743
     -1.806807     16.408133     16.408133     32.816267
     -1.796797     15.601711     15.601711     31.203421
     -1.786787     14.850955     14.850955     29.701911
     -1.776777     13.938383     13.938383     27.876766
     -1.766767     12.671437     12.671437     25.342874
     -1.756757     10.986315     10.986315     21.972629
     -1.746747      8.984680      8.984680     17.969360
     -1.736737      6.892976      6.892976     13.785952
     -1.726727      4.977241      4.977241      9.954481
     -1.716717      3.463683      3.463683      6.927366
     -1.706707      2.499716      2.499716      4.999432
     -1.696697      2.157391      2.157391      4.314782
     -1.686687      2.454839      2.454839      4.909678
     -1.676677      3.366223      3.366223      6.732446
     -1.666667      4.806658      4.806658      9.613316
     -1.656657      6.603692      6.603692     13.207385
     -1.646647      8.485318      8.485318     16.970637
     -1.636637     10.113606     10.113606     20.227212
     -1.626627     11.170713     11.170713     22.341426
