# EIG2DOS: Utility for SIESTA to obtain the electronic density of states
#  E. Artacho, Apr 1999, A. Garcia, Apr 2012
#  Nick R. Papior, Feb 2017
# ------------------------------------------
# Eigenvalues calculated from a non-polarized calculation
# Eigenvalues read from siesta.EIG
# Kpoint weights read from siesta.KP
# Using smearing parameter:   0.0500
# Using 1000 points in the energy range
# Selected bands: 1 to: 2981
# Emin, Emax in file for selected band(s):    -27.0435855    218.3087210
# Nbands, Nspin, Nk   =   2981     1     1
# E_F                 =    -4.3007 eV --> (shifted to ZERO)
# Broadening          =     0.0500 eV
#
#        E            N(up)  (=)   N(down)         Ntot
     -5.000000     45.036330     45.036330     90.072659
     -4.989990     49.182432     49.182432     98.364865
     -4.979980     51.744080     51.744080    103.488160
     -4.969970     52.416888     52.416888    104.833776
     -4.959960     51.205517     51.205517    102.411034
     -4.949950     48.408891     48.408891     96.817781
     -4.939940     44.536173     44.536173     89.072345
     -4.929930     40.204379     40.204379     80.408757
     -4.919920     36.064163     36.064163     72.128326
     -4.909910     32.765479     32.765479     65.530958
     -4.899900     30.932751     30.932751     61.865501
     -4.889890     31.097991     31.097991     62.195981
     -4.879880     33.560146     33.560146     67.120293
     -4.869870     38.198622     38.198622     76.397244
     -4.859860     44.336546     44.336546     88.673092
     -4.849850     50.772796     50.772796    101.545592
     -4.839840     56.044105     56.044105    112.088209
     -4.829830     58.856042     58.856042    117.712085
     -4.819820     58.507200     58.507200    117.014400
     -4.809810     55.107751     55.107751    110.215501
     -4.799800     49.489774     49.489774     98.979548
     -4.789790     42.865824     42.865824     85.731648
     -4.779780     36.411635     36.411635     72.823270
     -4.769770     30.957014     30.957014     61.914029
     -4.759760     26.876748     26.876748     53.753496
     -4.749750     24.156354     24.156354     48.312708
     -4.739740     22.540506     22.540506     45.081012
     -4.729730     21.676185     21.676185     43.352370
     -4.719720     21.207297     21.207297     42.414594
     -4.709710     20.820438     20.820438     41.640876
     -4.699700     20.262730     20.262730     40.525460
     -4.689690     19.355447     19.355447     38.710893
     -4.679680     18.019703     18.019703     36.039406
     -4.669670     16.316258     16.316258     32.632516
     -4.659660     14.484142     14.484142     28.968283
     -4.649650     12.951024     12.951024     25.902049
     -4.639640     12.290028     12.290028     24.580055
     -4.629630     13.112488     13.112488     26.224976
     -4.619620     15.906984     15.906984     31.813968
     -4.609610     20.856637     20.856637     41.713274
     -4.599600     27.687961     27.687961     55.375923
     -4.589590     35.619088     35.619088     71.238176
     -4.579580     43.466266     43.466266     86.932531
     -4.569570     49.920043     49.920043     99.840086
     -4.559560     53.924465     53.924465    107.848930
     -4.549550     55.022951     55.022951    110.045901
     -4.539540     53.521642     53.521642    107.043285
     -4.529530     50.385921     50.385921    100.771841
     -4.519520     46.901096     46.901096     93.802192
     -4.509510     44.233155     44.233155     88.466310
     -4.499499     43.064304     43.064304     86.128607
     -4.489489     43.434701     43.434701     86.869402
     -4.479479     44.824817     44.824817     89.649634
     -4.469469     46.414353     46.414353     92.828707
     -4.459459     47.397723     47.397723     94.795445
     -4.449449     47.238207     47.238207     94.476413
     -4.439439     45.789151     45.789151     91.578302
     -4.429429     43.272000     43.272000     86.543999
     -4.419419     40.151033     40.151033     80.302065
     -4.409409     36.968602     36.968602     73.937204
     -4.399399     34.200580     34.200580     68.401160
     -4.389389     32.167517     32.167517     64.335035
     -4.379379     31.006584     31.006584     62.013168
     -4.369369     30.687354     30.687354     61.374709
     -4.359359     31.049557     31.049557     62.099114
     -4.349349     31.850311     31.850311     63.700623
     -4.339339     32.819895     32.819895     65.639790
     -4.329329     33.726458     33.726458     67.452917
     -4.319319     34.439731     34.439731     68.879462
     -4.309309     34.972380     34.972380     69.944761
     -4.299299     35.477883     35.477883     70.955765
     -4.289289     36.197577     36.197577     72.395154
     -4.279279     37.367564     37.367564     74.735127
     -4.269269     39.108800     39.108800     78.217599
     -4.259259     41.331158     41.331158     82.662315
     -4.249249     43.688546     43.688546     87.377092
     -4.239239     45.622527     45.622527     91.245053
     -4.229229     46.510793     46.510793     93.021585
     -4.219219     45.887497     45.887497     91.774994
     -4.209209     43.646741     43.646741     87.293482
     -4.199199     40.122508     40.122508     80.245015
     -4.189189     35.987172     35.987172     71.974345
     -4.179179     32.006784     32.006784     64.013569
     -4.169169     28.772994     28.772994     57.545989
     -4.159159     26.542508     26.542508     53.085016
     -4.149149     25.249371     25.249371     50.498743
     -4.139139     24.659357     24.659357     49.318714
     -4.129129     24.567672     24.567672     49.135345
     -4.119119     24.931340     24.931340     49.862680
     -4.109109     25.869272     25.869272     51.738545
     -4.099099     27.531159     27.531159     55.062319
     -4.089089     29.904189     29.904189     59.808377
     -4.079079     32.668129     32.668129     65.336259
     -4.069069     35.199551     35.199551     70.399101
     -4.059059     36.756320     36.756320     73.512639
     -4.049049     36.771502     36.771502     73.543004
     -4.039039     35.111226     35.111226     70.222452
     -4.029029     32.158569     32.158569     64.317137
     -4.019019     28.678765     28.678765     57.357530
     -4.009009     25.542416     25.542416     51.084832
     -3.998999     23.453223     23.453223     46.906446
     -3.988989     22.802644     22.802644     45.605287
     -3.978979     23.680740     23.680740     47.361480
     -3.968969     25.980210     25.980210     51.960419
     -3.958959     29.499769     29.499769     58.999538
     -3.948949     33.992145     33.992145     67.984289
     -3.938939     39.167946     39.167946     78.335892
     -3.928929     44.703719     44.703719     89.407439
     -3.918919     50.285726     50.285726    100.571451
     -3.908909     55.672108     55.672108    111.344216
     -3.898899     60.720862     60.720862    121.441723
     -3.888889     65.341335     65.341335    130.682671
     -3.878879     69.378228     69.378228    138.756455
     -3.868869     72.494056     72.494056    144.988113
     -3.858859     74.138590     74.138590    148.277180
     -3.848849     73.661450     73.661450    147.322900
     -3.838839     70.549153     70.549153    141.098306
     -3.828829     64.690259     64.690259    129.380519
     -3.818819     56.539161     56.539161    113.078322
     -3.808809     47.085327     47.085327     94.170653
     -3.798799     37.623926     37.623926     75.247852
     -3.788789     29.415243     29.415243     58.830485
     -3.778779     23.363561     23.363561     46.727123
     -3.768769     19.824281     19.824281     39.648562
     -3.758759     18.584017     18.584017     37.168033
     -3.748749     18.993143     18.993143     37.986286
     -3.738739     20.191613     20.191613     40.383226
     -3.728729     21.360203     21.360203     42.720406
     -3.718719     21.937934     21.937934     43.875869
     -3.708709     21.759894     21.759894     43.519788
     -3.698699     21.084561     21.084561     42.169121
     -3.688689     20.499244     20.499244     40.998487
     -3.678679     20.719867     20.719867     41.439733
     -3.668669     22.334834     22.334834     44.669668
     -3.658659     25.571507     25.571507     51.143014
     -3.648649     30.171032     30.171032     60.342064
     -3.638639     35.428646     35.428646     70.857292
     -3.628629     40.394052     40.394052     80.788104
     -3.618619     44.155913     44.155913     88.311825
     -3.608609     46.095948     46.095948     92.191897
     -3.598599     46.018107     46.018107     92.036215
     -3.588589     44.125889     44.125889     88.251777
     -3.578579     40.891726     40.891726     81.783453
     -3.568569     36.892907     36.892907     73.785815
     -3.558559     32.670895     32.670895     65.341790
     -3.548549     28.634664     28.634664     57.269328
     -3.538539     25.008174     25.008174     50.016347
     -3.528529     21.824344     21.824344     43.648689
     -3.518519     18.972185     18.972185     37.944369
     -3.508509     16.290249     16.290249     32.580499
     -3.498498     13.673673     13.673673     27.347345
     -3.488488     11.147858     11.147858     22.295716
     -3.478478      8.876074      8.876074     17.752147
     -3.468468      7.102070      7.102070     14.204139
     -3.458458      6.057973      6.057973     12.115947
     -3.448448      5.875319      5.875319     11.750638
     -3.438438      6.526855      6.526855     13.053710
     -3.428428      7.813529      7.813529     15.627057
     -3.418418      9.403004      9.403004     18.806009
     -3.408408     10.918005     10.918005     21.836010
     -3.398398     12.056537     12.056537     24.113075
     -3.388388     12.705068     12.705068     25.410135
     -3.378378     12.996178     12.996178     25.992355
     -3.368368     13.278699     13.278699     26.557398
     -3.358358     14.006803     14.006803     28.013606
     -3.348348     15.591691     15.591691     31.183383
     -3.338338     18.270525     18.270525     36.541050
     -3.328328     22.027106     22.027106     44.054213
     -3.318318     26.567977     26.567977     53.135954
     -3.308308     31.343247     31.343247     62.686494
     -3.298298     35.611899     35.611899     71.223797
     -3.288288     38.565675     38.565675     77.131351
     -3.278278     39.514056     39.514056     79.028112
     -3.268268     38.089742     38.089742     76.179483
     -3.258258     34.391660     34.391660     68.783321
     -3.248248     28.985256     28.985256     57.970513
     -3.238238     22.741005     22.741005     45.482010
     -3.228228     16.575625     16.575625     33.151250
     -3.218218     11.208643     11.208643     22.417286
     -3.208208      7.028786      7.028786     14.057573
     -3.198198      4.098643      4.098643      8.197286
     -3.188188      2.259826      2.259826      4.519652
     -3.178178      1.271708      1.271708      2.543417
     -3.168168      0.928335      0.928335      1.856670
     -3.158158      1.128379      1.128379      2.256758
     -3.148148      1.897445      1.897445      3.794891
     -3.138138      3.370408      3.370408      6.740815
     -3.128128      5.739364      5.739364     11.478728
     -3.118118      9.172199      9.172199     18.344397
     -3.108108     13.715292     13.715292     27.430584
     -3.098098     19.208816     19.208816     38.417632
     -3.088088     25.252235     25.252235     50.504469
     -3.078078     31.248197     31.248197     62.496394
     -3.068068     36.522343     36.522343     73.044686
     -3.058058     40.478705     40.478705     80.957410
     -3.048048     42.729621     42.729621     85.459242
     -3.038038     43.152621     43.152621     86.305242
     -3.028028     41.868592     41.868592     83.737184
     -3.018018     39.177347     39.177347     78.354694
     -3.008008     35.498413     35.498413     70.996825
     -2.997998     31.339653     31.339653     62.679306
     -2.987988     27.277611     27.277611     54.555222
     -2.977978     23.914875     23.914875     47.829750
     -2.967968     21.796515     21.796515     43.593030
     -2.957958     21.303920     21.303920     42.607841
     -2.947948     22.568599     22.568599     45.137198
     -2.937938     25.441505     25.441505     50.883009
     -2.927928     29.523593     29.523593     59.047186
     -2.917918     34.236973     34.236973     68.473947
     -2.907908     38.912578     38.912578     77.825155
     -2.897898     42.885392     42.885392     85.770783
     -2.887888     45.599839     45.599839     91.199679
     -2.877878     46.718733     46.718733     93.437466
     -2.867868     46.205196     46.205196     92.410393
     -2.857858     44.333044     44.333044     88.666088
     -2.847848     41.598571     41.598571     83.197142
     -2.837838     38.552640     38.552640     77.105281
     -2.827828     35.618802     35.618802     71.237603
     -2.817818     32.978646     32.978646     65.957292
     -2.807808     30.575914     30.575914     61.151828
     -2.797798     28.230651     28.230651     56.461301
     -2.787788     25.797740     25.797740     51.595481
     -2.777778     23.282904     23.282904     46.565808
     -2.767768     20.856173     20.856173     41.712346
     -2.757758     18.763118     18.763118     37.526236
     -2.747748     17.193493     17.193493     34.386986
     -2.737738     16.190681     16.190681     32.381362
     -2.727728     15.658257     15.658257     31.316514
     -2.717718     15.457240     15.457240     30.914481
     -2.707708     15.527557     15.527557     31.055115
     -2.697698     15.948868     15.948868     31.897737
     -2.687688     16.893276     16.893276     33.786552
     -2.677678     18.493703     18.493703     36.987405
     -2.667668     20.711160     20.711160     41.422320
     -2.657658     23.291230     23.291230     46.582461
     -2.647648     25.846976     25.846976     51.693952
     -2.637638     28.024578     28.024578     56.049157
     -2.627628     29.653014     29.653014     59.306028
     -2.617618     30.788931     30.788931     61.577861
     -2.607608     31.637207     31.637207     63.274414
     -2.597598     32.407323     32.407323     64.814646
     -2.587588     33.198058     33.198058     66.396116
     -2.577578     33.967631     33.967631     67.935261
     -2.567568     34.577124     34.577124     69.154249
     -2.557558     34.850988     34.850988     69.701976
     -2.547548     34.612042     34.612042     69.224084
     -2.537538     33.697762     33.697762     67.395523
     -2.527528     31.996235     31.996235     63.992470
     -2.517518     29.521142     29.521142     59.042283
     -2.507508     26.493387     26.493387     52.986774
     -2.497497     23.363134     23.363134     46.726269
     -2.487487     20.725115     20.725115     41.450230
     -2.477477     19.141872     19.141872     38.283743
     -2.467467     18.949934     18.949934     37.899868
     -2.457457     20.142144     20.142144     40.284287
     -2.447447     22.385492     22.385492     44.770985
     -2.437437     25.168779     25.168779     50.337559
     -2.427427     28.012235     28.012235     56.024469
     -2.417417     30.641299     30.641299     61.282597
     -2.407407     33.042803     33.042803     66.085606
     -2.397397     35.377392     35.377392     70.754784
     -2.387387     37.792213     37.792213     75.584427
     -2.377377     40.229435     40.229435     80.458869
     -2.367367     42.333233     42.333233     84.666466
     -2.357357     43.515082     43.515082     87.030164
     -2.347347     43.162492     43.162492     86.324984
     -2.337337     40.904426     40.904426     81.808853
     -2.327327     36.813765     36.813765     73.627530
     -2.317317     31.452917     31.452917     62.905835
     -2.307307     25.741391     25.741391     51.482782
     -2.297297     20.704365     20.704365     41.408731
     -2.287287     17.205486     17.205486     34.410973
     -2.277277     15.756756     15.756756     31.513512
     -2.267267     16.450070     16.450070     32.900140
     -2.257257     19.002781     19.002781     38.005563
     -2.247247     22.877950     22.877950     45.755900
     -2.237237     27.431143     27.431143     54.862287
     -2.227227     32.040199     32.040199     64.080399
     -2.217217     36.186347     36.186347     72.372693
     -2.207207     39.475805     39.475805     78.951610
     -2.197197     41.619022     41.619022     83.238043
     -2.187187     42.407262     42.407262     84.814524
     -2.177177     41.724946     41.724946     83.449893
     -2.167167     39.604321     39.604321     79.208641
     -2.157157     36.284496     36.284496     72.568991
     -2.147147     32.213729     32.213729     64.427457
     -2.137137     27.956618     27.956618     55.913236
     -2.127127     24.027673     24.027673     48.055345
     -2.117117     20.728715     20.728715     41.457431
     -2.107107     18.076697     18.076697     36.153394
     -2.097097     15.860215     15.860215     31.720431
     -2.087087     13.789190     13.789190     27.578379
     -2.077077     11.652821     11.652821     23.305642
     -2.067067      9.406657      9.406657     18.813315
     -2.057057      7.160412      7.160412     14.320823
     -2.047047      5.095874      5.095874     10.191749
     -2.037037      3.372734      3.372734      6.745468
     -2.027027      2.069806      2.069806      4.139611
     -2.017017      1.176866      1.176866      2.353733
     -2.007007      0.623272      0.623272      1.246545
     -1.996997      0.318561      0.318561      0.637121
     -1.986987      0.186146      0.186146      0.372291
     -1.976977      0.183510      0.183510      0.367020
     -1.966967      0.311201      0.311201      0.622401
     -1.956957      0.614696      0.614696      1.229392
     -1.946947      1.179640      1.179640      2.359279
     -1.936937      2.116655      2.116655      4.233310
     -1.926927      3.531556      3.531556      7.063112
     -1.916917      5.482561      5.482561     10.965121
     -1.906907      7.936037      7.936037     15.872075
     -1.896897     10.739921     10.739921     21.479842
     -1.886887     13.632156     13.632156     27.264313
     -1.876877     16.288631     16.288631     32.577261
     -1.866867     18.397780     18.397780     36.795561
     -1.856857     19.737788     19.737788     39.475575
     -1.846847     20.232350     20.232350     40.464700
     -1.836837     19.968715     19.968715     39.937430
     -1.826827     19.170506     19.170506     38.341012
     -1.816817     18.127112     18.127112     36.254224
     -1.806807     17.095460     17.095460     34.190920
     -1.796797     16.207839     16.207839     32.415677
     -1.786787     15.428426     15.428426     30.856853
     -1.776777     14.586353     14.586353     29.172706
     -1.766767     13.475265     13.475265     26.950529
     -1.756757     11.970902     11.970902     23.941805
     -1.746747     10.107356     10.107356     20.214713
     -1.736737      8.078827      8.078827     16.157654
     -1.726727      6.178120      6.178120     12.356241
     -1.716717      4.714122      4.714122      9.428244
     -1.706707      3.949015      3.949015      7.898030
     -1.696697      4.068640      4.068640      8.137281
     -1.686687      5.170299      5.170299     10.340599
     -1.676677      7.243351      7.243351     14.486703
     -1.666667     10.134078     10.134078     20.268155
     -1.656657     13.513934     13.513934     27.027868
     -1.646647     16.887830     16.887830     33.775660
     -1.636637     19.670813     19.670813     39.341626
     -1.626627     21.328512     21.328512     42.657025
