# EIG2DOS: Utility for SIESTA to obtain the electronic density of states
#  E. Artacho, Apr 1999, A. Garcia, Apr 2012
#  Nick R. Papior, Feb 2017
# ------------------------------------------
# Eigenvalues calculated from a non-polarized calculation
# Eigenvalues read from siesta.EIG
# Kpoint weights read from siesta.KP
# Using smearing parameter:   0.0500
# Using 1000 points in the energy range
# Selected bands: 1 to: 2981
# Emin, Emax in file for selected band(s):    -27.0287440    218.3160310
# Nbands, Nspin, Nk   =   2981     1     1
# E_F                 =    -4.2907 eV --> (shifted to ZERO)
# Broadening          =     0.0500 eV
#
#        E            N(up)  (=)   N(down)         Ntot
     -5.000000     45.442071     45.442071     90.884141
     -4.989990     48.256271     48.256271     96.512542
     -4.979980     49.713622     49.713622     99.427245
     -4.969970     49.738259     49.738259     99.476518
     -4.959960     48.402396     48.402396     96.804791
     -4.949950     45.909258     45.909258     91.818517
     -4.939940     42.575044     42.575044     85.150088
     -4.929930     38.817007     38.817007     77.634015
     -4.919920     35.146911     35.146911     70.293822
     -4.909910     32.158212     32.158212     64.316425
     -4.899900     30.483286     30.483286     60.966572
     -4.889890     30.692631     30.692631     61.385263
     -4.879880     33.126775     33.126775     66.253549
     -4.869870     37.699043     37.699043     75.398086
     -4.859860     43.761650     43.761650     87.523300
     -4.849850     50.143483     50.143483    100.286966
     -4.839840     55.411424     55.411424    110.822847
     -4.829830     58.292184     58.292184    116.584368
     -4.819820     58.085625     58.085625    116.171250
     -4.809810     54.880032     54.880032    109.760063
     -4.799800     49.470706     49.470706     98.941411
     -4.789790     43.033677     43.033677     86.067355
     -4.779780     36.721013     36.721013     73.442026
     -4.769770     31.355268     31.355268     62.710536
     -4.759760     27.315628     27.315628     54.631255
     -4.749750     24.596370     24.596370     49.192740
     -4.739740     22.950705     22.950705     45.901410
     -4.729730     22.033146     22.033146     44.066293
     -4.719720     21.494939     21.494939     42.989877
     -4.709710     21.029954     21.029954     42.059908
     -4.699700     20.391738     20.391738     40.783475
     -4.689690     19.406584     19.406584     38.813168
     -4.679680     17.999686     17.999686     35.999373
     -4.669670     16.235927     16.235927     32.471854
     -4.659660     14.359020     14.359020     28.718040
     -4.649650     12.801621     12.801621     25.603242
     -4.639640     12.141613     12.141613     24.283227
     -4.629630     12.994423     12.994423     25.988847
     -4.619620     15.851044     15.851044     31.702088
     -4.609610     20.892767     20.892767     41.785533
     -4.599600     27.836338     27.836338     55.672677
     -4.589590     35.880188     35.880188     71.760376
     -4.579580     43.814387     43.814387     87.628774
     -4.569570     50.306904     50.306904    100.613808
     -4.559560     54.295444     54.295444    108.590888
     -4.549550     55.340572     55.340572    110.681145
     -4.539540     53.784307     53.784307    107.568613
     -4.529530     50.630039     50.630039    101.260078
     -4.519520     47.183019     47.183019     94.366038
     -4.509510     44.599049     44.599049     89.198098
     -4.499499     43.524468     43.524468     87.048936
     -4.489489     43.958572     43.958572     87.917145
     -4.479479     45.363673     45.363673     90.727347
     -4.469469     46.944172     46.944172     93.888344
     -4.459459     47.960792     47.960792     95.921584
     -4.449449     47.955792     47.955792     95.911584
     -4.439439     46.824756     46.824756     93.649512
     -4.429429     44.747221     44.747221     89.494441
     -4.419419     42.046342     42.046342     84.092684
     -4.409409     39.062573     39.062573     78.125147
     -4.399399     36.094605     36.094605     72.189210
     -4.389389     33.404001     33.404001     66.808002
     -4.379379     31.235395     31.235395     62.470790
     -4.369369     29.801883     29.801883     59.603767
     -4.359359     29.225328     29.225328     58.450656
     -4.349349     29.470962     29.470962     58.941924
     -4.339339     30.334072     30.334072     60.668145
     -4.329329     31.507908     31.507908     63.015817
     -4.319319     32.708166     32.708166     65.416332
     -4.309309     33.791019     33.791019     67.582039
     -4.299299     34.804117     34.804117     69.608235
     -4.289289     35.946186     35.946186     71.892373
     -4.279279     37.453025     37.453025     74.906051
     -4.269269     39.453809     39.453809     78.907618
     -4.259259     41.849736     41.849736     83.699472
     -4.249249     44.265171     44.265171     88.530341
     -4.239239     46.109052     46.109052     92.218105
     -4.229229     46.751036     46.751036     93.502073
     -4.219219     45.761418     45.761418     91.522836
     -4.209209     43.112568     43.112568     86.225137
     -4.199199     39.234582     39.234582     78.469163
     -4.189189     34.880068     34.880068     69.760135
     -4.179179     30.853898     30.853898     61.707796
     -4.169169     27.739089     27.739089     55.478177
     -4.159159     25.749044     25.749044     51.498088
     -4.149149     24.761594     24.761594     49.523189
     -4.139139     24.492424     24.492424     48.984848
     -4.129129     24.701884     24.701884     49.403768
     -4.119119     25.325843     25.325843     50.651686
     -4.109109     26.467960     26.467960     52.935920
     -4.099099     28.261041     28.261041     56.522082
     -4.089089     30.672070     30.672070     61.344141
     -4.079079     33.363421     33.363421     66.726842
     -4.069069     35.708098     35.708098     71.416197
     -4.059059     36.983635     36.983635     73.967270
     -4.049049     36.667348     36.667348     73.334696
     -4.039039     34.685445     34.685445     69.370891
     -4.029029     31.481702     31.481702     62.963404
     -4.019019     27.867827     27.867827     55.735654
     -4.009009     24.737552     24.737552     49.475103
     -3.998999     22.792073     22.792073     45.584146
     -3.988989     22.397260     22.397260     44.794519
     -3.978979     23.599843     23.599843     47.199686
     -3.968969     26.239217     26.239217     52.478434
     -3.958959     30.061115     30.061115     60.122230
     -3.948949     34.776979     34.776979     69.553958
     -3.938939     40.076876     40.076876     80.153753
     -3.928929     45.640583     45.640583     91.281167
     -3.918919     51.176667     51.176667    102.353334
     -3.908909     56.473510     56.473510    112.947019
     -3.898899     61.413711     61.413711    122.827422
     -3.888889     65.915235     65.915235    131.830470
     -3.878879     69.813568     69.813568    139.627135
     -3.868869     72.753031     72.753031    145.506063
     -3.858859     74.172329     74.172329    148.344657
     -3.848849     73.431927     73.431927    146.863853
     -3.838839     70.055161     70.055161    140.110322
     -3.828829     63.982787     63.982787    127.965574
     -3.818819     55.716367     55.716367    111.432733
     -3.808809     46.268240     46.268240     92.536480
     -3.798799     36.923863     36.923863     73.847726
     -3.788789     28.906696     28.906696     57.813392
     -3.778779     23.071526     23.071526     46.143052
     -3.768769     19.727030     19.727030     39.454060
     -3.758759     18.626593     18.626593     37.253186
     -3.748749     19.105333     19.105333     38.210665
     -3.738739     20.305629     20.305629     40.611258
     -3.728729     21.425218     21.425218     42.850436
     -3.718719     21.929651     21.929651     43.859302
     -3.708709     21.683821     21.683821     43.367642
     -3.698699     20.972336     20.972336     41.944673
     -3.688689     20.398611     20.398611     40.797222
     -3.678679     20.680488     20.680488     41.360976
     -3.668669     22.393431     22.393431     44.786862
     -3.658659     25.740333     25.740333     51.480667
     -3.648649     30.433043     30.433043     60.866087
     -3.638639     35.740909     35.740909     71.481818
     -3.628629     40.698387     40.698387     81.396774
     -3.618619     44.393429     44.393429     88.786859
     -3.608609     46.221071     46.221071     92.442142
     -3.598599     46.008287     46.008287     92.016575
     -3.588589     43.984952     43.984952     87.969904
     -3.578579     40.646708     40.646708     81.293417
     -3.568569     36.585670     36.585670     73.171340
     -3.558559     32.346843     32.346843     64.693687
     -3.548549     28.331653     28.331653     56.663305
     -3.538539     24.748898     24.748898     49.497795
     -3.528529     21.614531     21.614531     43.229062
     -3.518519     18.804675     18.804675     37.609349
     -3.508509     16.152566     16.152566     32.305132
     -3.498498     13.555378     13.555378     27.110756
     -3.488488     11.044681     11.044681     22.089363
     -3.478478      8.789905      8.789905     17.579811
     -3.468468      7.038021      7.038021     14.076042
     -3.458458      6.020618      6.020618     12.041236
     -3.448448      5.865871      5.865871     11.731742
     -3.438438      6.542093      6.542093     13.084186
     -3.428428      7.846541      7.846541     15.693082
     -3.418418      9.445470      9.445470     18.890940
     -3.408408     10.963456     10.963456     21.926913
     -3.398398     12.103608     12.103608     24.207217
     -3.388388     12.759329     12.759329     25.518659
     -3.378378     13.069368     13.069368     26.138735
     -3.368368     13.385188     13.385188     26.770376
     -3.358358     14.158572     14.158572     28.317145
     -3.348348     15.793910     15.793910     31.587819
     -3.338338     18.519243     18.519243     37.038486
     -3.328328     22.309040     22.309040     44.618080
     -3.318318     26.861103     26.861103     53.722207
     -3.308308     31.617381     31.617381     63.234762
     -3.298298     35.830255     35.830255     71.660510
     -3.288288     38.689719     38.689719     77.379438
     -3.278278     39.512739     39.512739     79.025478
     -3.268268     37.950665     37.950665     75.901331
     -3.258258     34.128617     34.128617     68.257233
     -3.248248     28.637041     28.637041     57.274081
     -3.238238     22.360780     22.360780     44.721561
     -3.228228     16.215442     16.215442     32.430883
     -3.218218     10.906184     10.906184     21.812368
     -3.208208      6.801557      6.801557     13.603114
     -3.198198      3.946433      3.946433      7.892866
     -3.188188      2.172533      2.172533      4.345066
     -3.178178      1.238409      1.238409      2.476818
     -3.168168      0.944437      0.944437      1.888875
     -3.158158      1.199161      1.199161      2.398321
     -3.148148      2.036791      2.036791      4.073582
     -3.138138      3.593139      3.593139      7.186277
     -3.128128      6.045293      6.045293     12.090587
     -3.118118      9.521728      9.521728     19.043455
     -3.108108     14.001117     14.001117     28.002234
     -3.098098     19.235515     19.235515     38.471030
     -3.088088     24.741821     24.741821     49.483641
     -3.078078     29.889352     29.889352     59.778704
     -3.068068     34.068361     34.068361     68.136722
     -3.058058     36.873633     36.873633     73.747265
     -3.048048     38.213041     38.213041     76.426081
     -3.038038     38.279610     38.279610     76.559220
     -3.028028     37.400875     37.400875     74.801751
     -3.018018     35.856808     35.856808     71.713615
     -3.008008     33.781696     33.781696     67.563391
     -2.997998     31.212449     31.212449     62.424899
     -2.987988     28.247766     28.247766     56.495531
     -2.977978     25.206515     25.206515     50.413031
     -2.967968     22.670881     22.670881     45.341761
     -2.957958     21.367929     21.367929     42.735859
     -2.947948     21.933731     21.933731     43.867463
     -2.937938     24.662742     24.662742     49.325485
     -2.927928     29.348607     29.348607     58.697215
     -2.917918     35.281726     35.281726     70.563452
     -2.907908     41.409418     41.409418     82.818837
     -2.897898     46.608377     46.608377     93.216754
     -2.887888     49.981402     49.981402     99.962805
     -2.877878     51.081741     51.081741    102.163481
     -2.867868     49.993032     49.993032     99.986064
     -2.857858     47.243755     47.243755     94.487509
     -2.847848     43.593695     43.593695     87.187391
     -2.837838     39.774143     39.774143     79.548285
     -2.827828     36.276786     36.276786     72.553573
     -2.817818     33.263673     33.263673     66.527345
     -2.807808     30.619785     30.619785     61.239571
     -2.797798     28.110075     28.110075     56.220150
     -2.787788     25.559323     25.559323     51.118646
     -2.777778     22.967385     22.967385     45.934771
     -2.767768     20.509302     20.509302     41.018605
     -2.757758     18.432528     18.432528     36.865056
     -2.747748     16.919283     16.919283     33.838566
     -2.737738     15.999028     15.999028     31.998057
     -2.727728     15.562887     15.562887     31.125775
     -2.717718     15.466658     15.466658     30.933317
     -2.707708     15.651178     15.651178     31.302355
     -2.697698     16.195633     16.195633     32.391266
     -2.687688     17.261771     17.261771     34.523543
     -2.677678     18.959725     18.959725     37.919451
     -2.667668     21.222375     21.222375     42.444750
     -2.657658     23.775882     23.775882     47.551764
     -2.647648     26.235414     26.235414     52.470829
     -2.637638     28.273672     28.273672     56.547344
     -2.627628     29.760492     29.760492     59.520985
     -2.617618     30.790062     30.790062     61.580123
     -2.607608     31.586588     31.586588     63.173176
     -2.597598     32.356524     32.356524     64.713047
     -2.587588     33.179868     33.179868     66.359736
     -2.577578     33.990804     33.990804     67.981609
     -2.567568     34.628295     34.628295     69.256589
     -2.557558     34.898809     34.898809     69.797618
     -2.547548     34.612541     34.612541     69.225083
     -2.537538     33.603745     33.603745     67.207489
     -2.527528     31.772391     31.772391     63.544781
     -2.517518     29.160808     29.160808     58.321616
     -2.507508     26.028395     26.028395     52.056790
     -2.497497     22.859753     22.859753     45.719506
     -2.487487     20.266355     20.266355     40.532710
     -2.477477     18.803995     18.803995     37.607989
     -2.467467     18.783621     18.783621     37.567243
     -2.457457     20.165279     20.165279     40.330557
     -2.447447     22.587969     22.587969     45.175939
     -2.437437     25.524297     25.524297     51.048593
     -2.427427     28.490031     28.490031     56.980062
     -2.417417     31.212264     31.212264     62.424529
     -2.407407     33.677931     33.677931     67.355861
     -2.397397     36.040486     36.040486     72.080973
     -2.387387     38.431734     38.431734     76.863469
     -2.377377     40.775415     40.775415     81.550830
     -2.367367     42.703896     42.703896     85.407793
     -2.357357     43.634144     43.634144     87.268288
     -2.347347     42.982926     42.982926     85.965852
     -2.337337     40.429771     40.429771     80.859541
     -2.327327     36.106751     36.106751     72.213501
     -2.317317     30.625253     30.625253     61.250505
     -2.307307     24.926742     24.926742     49.853485
     -2.297297     20.024491     20.024491     40.048983
     -2.287287     16.742448     16.742448     33.484897
     -2.277277     15.540649     15.540649     31.081298
     -2.267267     16.464267     16.464267     32.928534
     -2.257257     19.201439     19.201439     38.402877
     -2.247247     23.206517     23.206517     46.413033
     -2.237237     27.840856     27.840856     55.681712
     -2.227227     32.491513     32.491513     64.983026
     -2.217217     36.642421     36.642421     73.284841
     -2.207207     39.892886     39.892886     79.785772
     -2.197197     41.942671     41.942671     83.885341
     -2.187187     42.580108     42.580108     85.160216
     -2.177177     41.704331     41.704331     83.408661
     -2.167167     39.381108     39.381108     78.762216
     -2.157157     35.891996     35.891996     71.783992
     -2.147147     31.720019     31.720019     63.440038
     -2.137137     27.442310     27.442310     54.884620
     -2.127127     23.559225     23.559225     47.118449
     -2.117117     20.339812     20.339812     40.679623
     -2.107107     17.765567     17.765567     35.531135
     -2.097097     15.601977     15.601977     31.203954
     -2.087087     13.554813     13.554813     27.109626
     -2.077077     11.424428     11.424428     22.848856
     -2.067067      9.182859      9.182859     18.365718
     -2.057057      6.951974      6.951974     13.903948
     -2.047047      4.916771      4.916771      9.833543
     -2.037037      3.232404      3.232404      6.464808
     -2.027027      1.969862      1.969862      3.939723
     -2.017017      1.112169      1.112169      2.224338
     -2.007007      0.585237      0.585237      1.170475
     -1.996997      0.298462      0.298462      0.596924
     -1.986987      0.177197      0.177197      0.354393
     -1.976977      0.181624      0.181624      0.363248
     -1.966967      0.314926      0.314926      0.629851
     -1.956957      0.624840      0.624840      1.249679
     -1.946947      1.198835      1.198835      2.397670
     -1.936937      2.148845      2.148845      4.297691
     -1.926927      3.581257      3.581257      7.162513
     -1.916917      5.553797      5.553797     11.107594
     -1.906907      8.030976      8.030976     16.061953
     -1.896897     10.857362     10.857362     21.714723
     -1.886887     13.766195     13.766195     27.532390
     -1.876877     16.428010     16.428010     32.856021
     -1.866867     18.526595     18.526595     37.053191
     -1.856857     19.838106     19.838106     39.676212
     -1.846847     20.288620     20.288620     40.577241
     -1.836837     19.972655     19.972655     39.945309
     -1.826827     19.124262     19.124262     38.248524
     -1.816817     18.042767     18.042767     36.085535
     -1.806807     16.990668     16.990668     33.981336
     -1.796797     16.099551     16.099551     32.199103
     -1.786787     15.327803     15.327803     30.655606
     -1.776777     14.497086     14.497086     28.994172
     -1.766767     13.395345     13.395345     26.790689
     -1.756757     11.895805     11.895805     23.791609
     -1.746747     10.032164     10.032164     20.064328
     -1.736737      7.997947      7.997947     15.995894
     -1.726727      6.083177      6.083177     12.166354
     -1.716717      4.592124      4.592124      9.184247
     -1.706707      3.783345      3.783345      7.566690
     -1.696697      3.844532      3.844532      7.689064
     -1.686687      4.884268      4.884268      9.768535
     -1.676677      6.913079      6.913079     13.826158
     -1.666667      9.802904      9.802904     19.605808
     -1.656657     13.244553     13.244553     26.489107
     -1.646647     16.744321     16.744321     33.488641
     -1.636637     19.695177     19.695177     39.390354
     -1.626627     21.523080     21.523080     43.046159
