# EIG2DOS: Utility for SIESTA to obtain the electronic density of states
#  E. Artacho, Apr 1999, A. Garcia, Apr 2012
#  Nick R. Papior, Feb 2017
# ------------------------------------------
# Eigenvalues calculated from a non-polarized calculation
# Eigenvalues read from siesta.EIG
# Kpoint weights read from siesta.KP
# Using smearing parameter:   0.0500
# Using 1000 points in the energy range
# Selected bands: 1 to: 2981
# Emin, Emax in file for selected band(s):    -27.2873701    218.3683940
# Nbands, Nspin, Nk   =   2981     1     1
# E_F                 =    -4.2329 eV --> (shifted to ZERO)
# Broadening          =     0.0500 eV
#
#        E            N(up)  (=)   N(down)         Ntot
     -5.000000     32.528608     32.528608     65.057216
     -4.989990     36.933973     36.933973     73.867946
     -4.979980     40.943722     40.943722     81.887444
     -4.969970     43.920658     43.920658     87.841315
     -4.959960     45.335261     45.335261     90.670522
     -4.949950     44.940108     44.940108     89.880215
     -4.939940     42.861558     42.861558     85.723116
     -4.929930     39.583546     39.583546     79.167093
     -4.919920     35.847966     35.847966     71.695933
     -4.909910     32.518410     32.518410     65.036821
     -4.899900     30.439003     30.439003     60.878007
     -4.889890     30.289546     30.289546     60.579091
     -4.879880     32.428189     32.428189     64.856377
     -4.869870     36.741008     36.741008     73.482017
     -4.859860     42.563036     42.563036     85.126071
     -4.849850     48.750977     48.750977     97.501953
     -4.839840     53.941495     53.941495    107.882989
     -4.829830     56.934752     56.934752    113.869504
     -4.819820     57.058804     57.058804    114.117608
     -4.809810     54.357744     54.357744    108.715487
     -4.799800     49.523119     49.523119     99.046237
     -4.789790     43.611552     43.611552     87.223104
     -4.779780     37.686994     37.686994     75.373988
     -4.769770     32.539677     32.539677     65.079353
     -4.759760     28.568651     28.568651     57.137301
     -4.749750     25.822243     25.822243     51.644486
     -4.739740     24.127648     24.127648     48.255296
     -4.729730     23.230270     23.230270     46.460540
     -4.719720     22.890387     22.890387     45.780774
     -4.709710     22.920870     22.920870     45.841739
     -4.699700     23.177574     23.177574     46.355148
     -4.689690     23.530171     23.530171     47.060342
     -4.679680     23.845932     23.845932     47.691864
     -4.669670     24.010526     24.010526     48.021052
     -4.659660     23.988128     23.988128     47.976255
     -4.649650     23.895270     23.895270     47.790540
     -4.639640     24.042024     24.042024     48.084049
     -4.629630     24.893672     24.893672     49.787343
     -4.619620     26.933157     26.933157     53.866313
     -4.609610     30.453970     30.453970     60.907940
     -4.599600     35.363603     35.363603     70.727206
     -4.589590     41.098685     41.098685     82.197369
     -4.579580     46.721894     46.721894     93.443788
     -4.569570     51.193137     51.193137    102.386275
     -4.559560     53.719882     53.719882    107.439764
     -4.549550     54.042264     54.042264    108.084529
     -4.539540     52.527416     52.527416    105.054831
     -4.529530     50.027342     50.027342    100.054683
     -4.519520     47.556674     47.556674     95.113349
     -4.509510     45.922400     45.922400     91.844799
     -4.499499     45.453710     45.453710     90.907421
     -4.489489     45.931566     45.931566     91.863132
     -4.479479     46.728617     46.728617     93.457234
     -4.469469     47.082684     47.082684     94.165367
     -4.459459     46.380758     46.380758     92.761516
     -4.449449     44.343746     44.343746     88.687492
     -4.439439     41.062834     41.062834     82.125669
     -4.429429     36.911487     36.911487     73.822975
     -4.419419     32.404226     32.404226     64.808452
     -4.409409     28.073611     28.073611     56.147221
     -4.399399     24.397941     24.397941     48.795883
     -4.389389     21.765338     21.765338     43.530676
     -4.379379     20.439107     20.439107     40.878215
     -4.369369     20.507178     20.507178     41.014356
     -4.359359     21.836417     21.836417     43.672833
     -4.349349     24.075985     24.075985     48.151971
     -4.339339     26.739609     26.739609     53.479218
     -4.329329     29.352376     29.352376     58.704752
     -4.319319     31.604882     31.604882     63.209765
     -4.309309     33.445817     33.445817     66.891635
     -4.299299     35.069679     35.069679     70.139358
     -4.289289     36.801203     36.801203     73.602406
     -4.279279     38.918221     38.918221     77.836443
     -4.269269     41.476989     41.476989     82.953978
     -4.259259     44.208104     44.208104     88.416208
     -4.249249     46.537160     46.537160     93.074319
     -4.239239     47.747464     47.747464     95.494928
     -4.229229     47.243055     47.243055     94.486111
     -4.219219     44.810278     44.810278     89.620556
     -4.209209     40.754400     40.754400     81.508800
     -4.199199     35.832250     35.832250     71.664500
     -4.189189     30.999377     30.999377     61.998753
     -4.179179     27.085900     27.085900     54.171799
     -4.169169     24.549626     24.549626     49.099252
     -4.159159     23.408140     23.408140     46.816279
     -4.149149     23.355946     23.355946     46.711892
     -4.139139     23.986003     23.986003     47.972005
     -4.129129     24.999068     24.999068     49.998135
     -4.119119     26.305308     26.305308     52.610616
     -4.109109     27.980300     27.980300     55.960599
     -4.099099     30.105843     30.105843     60.211686
     -4.089089     32.582357     32.582357     65.164713
     -4.079079     35.022232     35.022232     70.044464
     -4.069069     36.804255     36.804255     73.608510
     -4.059059     37.289606     37.289606     74.579212
     -4.049049     36.105859     36.105859     72.211718
     -4.039039     33.354297     33.354297     66.708594
     -4.029029     29.627229     29.627229     59.254459
     -4.019019     25.822449     25.822449     51.644898
     -4.009009     22.849196     22.849196     45.698393
     -3.998999     21.367111     21.367111     42.734221
     -3.988989     21.662750     21.662750     43.325500
     -3.978979     23.680112     23.680112     47.360225
     -3.968969     27.143169     27.143169     54.286338
     -3.958959     31.684890     31.684890     63.369780
     -3.948949     36.930126     36.930126     73.860253
     -3.938939     42.532511     42.532511     85.065021
     -3.928929     48.194940     48.194940     96.389881
     -3.918919     53.692257     53.692257    107.384514
     -3.908909     58.882786     58.882786    117.765572
     -3.898899     63.678695     63.678695    127.357390
     -3.888889     67.964197     67.964197    135.928395
     -3.878879     71.493482     71.493482    142.986965
     -3.868869     73.833112     73.833112    147.666224
     -3.858859     74.408149     74.408149    148.816298
     -3.848849     72.664763     72.664763    145.329526
     -3.838839     68.298355     68.298355    136.596710
     -3.828829     61.450888     61.450888    122.901776
     -3.818819     52.781336     52.781336    105.562672
     -3.808809     43.362253     43.362253     86.724506
     -3.798799     34.429735     34.429735     68.859470
     -3.788789     27.075312     27.075312     54.150624
     -3.778779     21.986865     21.986865     43.973731
     -3.768769     19.317652     19.317652     38.635304
     -3.758759     18.709103     18.709103     37.418207
     -3.748749     19.442785     19.442785     38.885569
     -3.738739     20.667326     20.667326     41.334652
     -3.728729     21.638329     21.638329     43.276658
     -3.718719     21.914956     21.914956     43.829912
     -3.708709     21.468974     21.468974     42.937947
     -3.698699     20.678559     20.678559     41.357118
     -3.688689     20.201943     20.201943     40.403886
     -3.678679     20.755862     20.755862     41.511724
     -3.668669     22.856603     22.856603     45.713205
     -3.658659     26.605791     26.605791     53.211583
     -3.648649     31.602696     31.602696     63.205393
     -3.638639     37.028127     37.028127     74.056254
     -3.628629     41.878387     41.878387     83.756774
     -3.618619     45.260807     45.260807     90.521614
     -3.608609     46.634407     46.634407     93.268814
     -3.598599     45.910611     45.910611     91.821222
     -3.588589     43.401108     43.401108     86.802216
     -3.578579     39.666291     39.666291     79.332582
     -3.568569     35.339924     35.339924     70.679848
     -3.558559     30.983509     30.983509     61.967018
     -3.548549     26.989337     26.989337     53.978673
     -3.538539     23.534312     23.534312     47.068624
     -3.528529     20.588565     20.588565     41.177130
     -3.518519     17.982127     17.982127     35.964255
     -3.508509     15.514840     15.514840     31.029680
     -3.498498     13.069388     13.069388     26.138777
     -3.488488     10.679232     10.679232     21.358465
     -3.478478      8.523862      8.523862     17.047724
     -3.468468      6.859976      6.859976     13.719951
     -3.458458      5.923650      5.923650     11.847300
     -3.448448      5.841829      5.841829     11.683657
     -3.438438      6.578549      6.578549     13.157099
     -3.428428      7.928060      7.928060     15.856120
     -3.418418      9.559957      9.559957     19.119914
     -3.408408     11.113863     11.113863     22.227725
     -3.398398     12.324532     12.324532     24.649063
     -3.388388     13.137021     13.137021     26.274042
     -3.378378     13.762287     13.762287     27.524573
     -3.368368     14.639949     14.639949     29.279899
     -3.358358     16.312105     16.312105     32.624210
     -3.348348     19.247947     19.247947     38.495894
     -3.338338     23.672931     23.672931     47.345862
     -3.328328     29.446485     29.446485     58.892970
     -3.318318     36.015547     36.015547     72.031094
     -3.308308     42.462640     42.462640     84.925280
     -3.298298     47.662130     47.662130     95.324259
     -3.288288     50.536725     50.536725    101.073450
     -3.278278     50.359337     50.359337    100.718674
     -3.268268     46.996842     46.996842     93.993684
     -3.258258     40.986248     40.986248     81.972496
     -3.248248     33.394255     33.394255     66.788510
     -3.238238     25.511191     25.511191     51.022382
     -3.228228     18.506532     18.506532     37.013065
     -3.218218     13.176342     13.176342     26.352684
     -3.208208      9.847940      9.847940     19.695879
     -3.198198      8.425524      8.425524     16.851048
     -3.188188      8.515364      8.515364     17.030727
     -3.178178      9.574733      9.574733     19.149466
     -3.168168     11.058339     11.058339     22.116677
     -3.158158     12.552883     12.552883     25.105766
     -3.148148     13.881211     13.881211     27.762423
     -3.138138     15.139740     15.139740     30.279479
     -3.128128     16.635494     16.635494     33.270988
     -3.118118     18.724745     18.724745     37.449491
     -3.108108     21.607856     21.607856     43.215713
     -3.098098     25.170706     25.170706     50.341411
     -3.088088     28.954405     28.954405     57.908810
     -3.078078     32.279906     32.279906     64.559813
     -3.068068     34.478596     34.478596     68.957192
     -3.058058     35.124631     35.124631     70.249262
     -3.048048     34.162181     34.162181     68.324362
     -3.038038     31.875756     31.875756     63.751513
     -3.028028     28.735027     28.735027     57.470053
     -3.018018     25.208218     25.208218     50.416436
     -3.008008     21.642932     21.642932     43.285863
     -2.997998     18.260212     18.260212     36.520425
     -2.987988     15.234924     15.234924     30.469849
     -2.977978     12.790277     12.790277     25.580554
     -2.967968     11.238965     11.238965     22.477931
     -2.957958     10.943739     10.943739     21.887478
     -2.947948     12.214079     12.214079     24.428157
     -2.937938     15.180535     15.180535     30.361070
     -2.927928     19.692836     19.692836     39.385673
     -2.917918     25.281354     25.281354     50.562708
     -2.907908     31.208397     31.208397     62.416794
     -2.897898     36.612471     36.612471     73.224942
     -2.887888     40.714310     40.714310     81.428620
     -2.877878     43.019695     43.019695     86.039389
     -2.867868     43.441481     43.441481     86.882962
     -2.857858     42.286678     42.286678     84.573356
     -2.847848     40.109111     40.109111     80.218221
     -2.837838     37.489120     37.489120     74.978240
     -2.827828     34.836477     34.836477     69.672953
     -2.817818     32.300710     32.300710     64.601421
     -2.807808     29.818427     29.818427     59.636854
     -2.797798     27.257909     27.257909     54.515819
     -2.787788     24.574308     24.574308     49.148616
     -2.777778     21.889456     21.889456     43.778911
     -2.767768     19.457940     19.457940     38.915880
     -2.757758     17.548401     17.548401     35.096802
     -2.747748     16.317399     16.317399     32.634797
     -2.737738     15.754249     15.754249     31.508499
     -2.727728     15.727859     15.727859     31.455718
     -2.717718     16.099253     16.099253     32.198506
     -2.707708     16.819147     16.819147     33.638293
     -2.697698     17.939243     17.939243     35.878486
     -2.687688     19.525903     19.525903     39.051806
     -2.677678     21.536770     21.536770     43.073540
     -2.667668     23.754220     23.754220     47.508440
     -2.657658     25.836895     25.836895     51.673789
     -2.647648     27.470532     27.470532     54.941063
     -2.637638     28.526851     28.526851     57.053702
     -2.627628     29.127568     29.127568     58.255136
     -2.617618     29.570543     29.570543     59.141085
     -2.607608     30.164478     30.164478     60.328957
     -2.597598     31.072750     31.072750     62.145500
     -2.587588     32.249067     32.249067     64.498135
     -2.577578     33.477252     33.477252     66.954504
     -2.567568     34.462839     34.462839     68.925677
     -2.557558     34.913061     34.913061     69.826121
     -2.547548     34.582175     34.582175     69.164350
     -2.537538     33.305652     33.305652     66.611305
     -2.527528     31.054219     31.054219     62.108438
     -2.517518     28.002763     28.002763     56.005526
     -2.507508     24.567081     24.567081     49.134162
     -2.497497     21.355802     21.355802     42.711604
     -2.487487     19.025237     19.025237     38.050474
     -2.477477     18.083128     18.083128     36.166255
     -2.467467     18.723465     18.723465     37.446930
     -2.457457     20.767274     20.767274     41.534548
     -2.447447     23.739253     23.739253     47.478507
     -2.437437     27.050580     27.050580     54.101161
     -2.427427     30.210445     30.210445     60.420891
     -2.417417     32.973886     32.973886     65.947772
     -2.407407     35.360067     35.360067     70.720133
     -2.397397     37.534438     37.534438     75.068876
     -2.387387     39.614247     39.614247     79.228493
     -2.377377     41.497606     41.497606     82.995211
     -2.367367     42.809945     42.809945     85.619891
     -2.357357     43.008166     43.008166     86.016332
     -2.347347     41.605412     41.605412     83.210823
     -2.337337     38.415742     38.415742     76.831484
     -2.327327     33.702754     33.702754     67.405508
     -2.317317     28.160561     28.160561     56.321123
     -2.307307     22.736140     22.736140     45.472280
     -2.297297     18.372962     18.372962     36.745924
     -2.287287     15.778888     15.778888     31.557776
     -2.277277     15.291701     15.291701     30.583403
     -2.267267     16.861007     16.861007     33.722013
     -2.257257     20.120179     20.120179     40.240359
     -2.247247     24.503862     24.503862     49.007724
     -2.237237     29.370377     29.370377     58.740753
     -2.227227     34.101266     34.101266     68.202533
     -2.217217     38.164219     38.164219     76.328437
     -2.207207     41.140356     41.140356     82.280713
     -2.197197     42.731454     42.731454     85.462908
     -2.187187     42.770307     42.770307     85.540614
     -2.177177     41.249185     41.249185     82.498370
     -2.167167     38.356587     38.356587     76.713174
     -2.157157     34.486553     34.486553     68.973107
     -2.147147     30.181413     30.181413     60.362827
     -2.137137     26.000395     26.000395     52.000789
     -2.127127     22.357527     22.357527     44.715053
     -2.117117     19.405782     19.405782     38.811564
     -2.107107     17.030196     17.030196     34.060393
     -2.097097     14.954739     14.954739     29.909477
     -2.087087     12.903961     12.903961     25.807922
     -2.077077     10.734249     10.734249     21.468497
     -2.067067      8.475940      8.475940     16.951880
     -2.057057      6.284369      6.284369     12.568737
     -2.047047      4.345280      4.345280      8.690561
     -2.037037      2.791716      2.791716      5.583432
     -2.027027      1.667456      1.667456      3.334913
     -2.017017      0.938936      0.938936      1.877871
     -2.007007      0.535366      0.535366      1.070731
     -1.996997      0.393400      0.393400      0.786800
     -1.986987      0.491424      0.491424      0.982848
     -1.976977      0.868185      0.868185      1.736369
     -1.966967      1.624181      1.624181      3.248362
     -1.956957      2.902934      2.902934      5.805868
     -1.946947      4.848876      4.848876      9.697753
     -1.936937      7.544826      7.544826     15.089652
     -1.926927     10.944950     10.944950     21.889900
     -1.916917     14.831471     14.831471     29.662941
     -1.906907     18.823628     18.823628     37.647257
     -1.896897     22.449238     22.449238     44.898476
     -1.886887     25.258938     25.258938     50.517876
     -1.876877     26.939409     26.939409     53.878817
     -1.866867     27.381806     27.381806     54.763611
     -1.856857     26.686575     26.686575     53.373150
     -1.846847     25.117378     25.117378     50.234756
     -1.836837     23.032062     23.032062     46.064124
     -1.826827     20.810598     20.810598     41.621197
     -1.816817     18.783677     18.783677     37.567354
     -1.806807     17.162603     17.162603     34.325206
     -1.796797     15.985725     15.985725     31.971451
     -1.786787     15.110830     15.110830     30.221660
     -1.776777     14.274240     14.274240     28.548480
     -1.766767     13.203545     13.203545     26.407090
     -1.756757     11.735339     11.735339     23.470678
     -1.746747      9.881399      9.881399     19.762799
     -1.736737      7.815171      7.815171     15.630342
     -1.726727      5.795524      5.795524     11.591049
     -1.716717      4.075268      4.075268      8.150536
     -1.706707      2.839748      2.839748      5.679496
     -1.696697      2.192700      2.192700      4.385399
     -1.686687      2.174453      2.174453      4.348907
     -1.676677      2.781782      2.781782      5.563563
     -1.666667      3.965646      3.965646      7.931293
     -1.656657      5.605760      5.605760     11.211520
     -1.646647      7.484568      7.484568     14.969137
     -1.636637      9.293289      9.293289     18.586578
     -1.626627     10.690887     10.690887     21.381775
