# EIG2DOS: Utility for SIESTA to obtain the electronic density of states
#  E. Artacho, Apr 1999, A. Garcia, Apr 2012
#  Nick R. Papior, Feb 2017
# ------------------------------------------
# Eigenvalues calculated from a non-polarized calculation
# Eigenvalues read from siesta.EIG
# Kpoint weights read from siesta.KP
# Using smearing parameter:   0.0500
# Using 1000 points in the energy range
# Selected bands: 1 to: 2981
# Emin, Emax in file for selected band(s):    -27.2038353    218.3569910
# Nbands, Nspin, Nk   =   2981     1     1
# E_F                 =    -4.2491 eV --> (shifted to ZERO)
# Broadening          =     0.0500 eV
#
#        E            N(up)  (=)   N(down)         Ntot
     -5.000000     35.155053     35.155053     70.310105
     -4.989990     38.827920     38.827920     77.655839
     -4.979980     41.724075     41.724075     83.448150
     -4.969970     43.423516     43.423516     86.847031
     -4.959960     43.673233     43.673233     87.346466
     -4.949950     42.465542     42.465542     84.931085
     -4.939940     40.053637     40.053637     80.107274
     -4.929930     36.912589     36.912589     73.825179
     -4.919920     33.672852     33.672852     67.345704
     -4.909910     31.046557     31.046557     62.093114
     -4.899900     29.742201     29.742201     59.484401
     -4.889890     30.344708     30.344708     60.689416
     -4.879880     33.150372     33.150372     66.300745
     -4.869870     37.993105     37.993105     75.986210
     -4.859860     44.149578     44.149578     88.299155
     -4.849850     50.418471     50.418471    100.836942
     -4.839840     55.405840     55.405840    110.811680
     -4.829830     57.938432     57.938432    115.876864
     -4.819820     57.437752     57.437752    114.875504
     -4.809810     54.085652     54.085652    108.171305
     -4.799800     48.709174     48.709174     97.418347
     -4.789790     42.451601     42.451601     84.903203
     -4.779780     36.391809     36.391809     72.783618
     -4.769770     31.271659     31.271659     62.543318
     -4.759760     27.407100     27.407100     54.814201
     -4.749750     24.757553     24.757553     49.515105
     -4.739740     23.070555     23.070555     46.141111
     -4.729730     22.020645     22.020645     44.041290
     -4.719720     21.298792     21.298792     42.597584
     -4.709710     20.648825     20.648825     41.297651
     -4.699700     19.872752     19.872752     39.745503
     -4.689690     18.835220     18.835220     37.670439
     -4.679680     17.489825     17.489825     34.979649
     -4.669670     15.929045     15.929045     31.858091
     -4.659660     14.434558     14.434558     28.869116
     -4.649650     13.490161     13.490161     26.980321
     -4.639640     13.725201     13.725201     27.450402
     -4.629630     15.779206     15.779206     31.558412
     -4.619620     20.107770     20.107770     40.215541
     -4.609610     26.777422     26.777422     53.554845
     -4.599600     35.318505     35.318505     70.637010
     -4.589590     44.711161     44.711161     89.422322
     -4.579580     53.555196     53.555196    107.110392
     -4.569570     60.412089     60.412089    120.824178
     -4.559560     64.224204     64.224204    128.448408
     -4.549550     64.655884     64.655884    129.311768
     -4.539540     62.207706     62.207706    124.415411
     -4.529530     58.039671     58.039671    116.079341
     -4.519520     53.564672     53.564672    107.129345
     -4.509510     49.975060     49.975060     99.950119
     -4.499499     47.889087     47.889087     95.778174
     -4.489489     47.240659     47.240659     94.481319
     -4.479479     47.422526     47.422526     94.845053
     -4.469469     47.589504     47.589504     95.179008
     -4.459459     46.981582     46.981582     93.963164
     -4.449449     45.148668     45.148668     90.297336
     -4.439439     42.025887     42.025887     84.051774
     -4.429429     37.880333     37.880333     75.760666
     -4.419419     33.192318     33.192318     66.384636
     -4.409409     28.533207     28.533207     57.066414
     -4.399399     24.469740     24.469740     48.939479
     -4.389389     21.489293     21.489293     42.978585
     -4.379379     19.927972     19.927972     39.855944
     -4.369369     19.900144     19.900144     39.800288
     -4.359359     21.255984     21.255984     42.511969
     -4.349349     23.604562     23.604562     47.209124
     -4.339339     26.418537     26.418537     52.837073
     -4.329329     29.193743     29.193743     58.387485
     -4.319319     31.602035     31.602035     63.204070
     -4.309309     33.573406     33.573406     67.146812
     -4.299299     35.274852     35.274852     70.549703
     -4.289289     36.997680     36.997680     73.995360
     -4.279279     38.997440     38.997440     77.994880
     -4.269269     41.341918     41.341918     82.683836
     -4.259259     43.819225     43.819225     87.638449
     -4.249249     45.946975     45.946975     91.893949
     -4.239239     47.100467     47.100467     94.200935
     -4.229229     46.734717     46.734717     93.469434
     -4.219219     44.621387     44.621387     89.242773
     -4.209209     40.990706     40.990706     81.981413
     -4.199199     36.494853     36.494853     72.989707
     -4.189189     31.993057     31.993057     63.986114
     -4.179179     28.253975     28.253975     56.507950
     -4.169169     25.716103     25.716103     51.432207
     -4.159159     24.412415     24.412415     48.824830
     -4.149149     24.075280     24.075280     48.150560
     -4.139139     24.348384     24.348384     48.696767
     -4.129129     24.990182     24.990182     49.980365
     -4.119119     25.969868     25.969868     51.939736
     -4.109109     27.414410     27.414410     54.828819
     -4.099099     29.437512     29.437512     58.875024
     -4.089089     31.942482     31.942482     63.884964
     -4.079079     34.515220     34.515220     69.030439
     -4.069069     36.490298     36.490298     72.980595
     -4.059059     37.185795     37.185795     74.371590
     -4.049049     36.202601     36.202601     72.405202
     -4.039039     33.633922     33.633922     67.267844
     -4.029029     30.070643     30.070643     60.141287
     -4.019019     26.398998     26.398998     52.797997
     -4.009009     23.498636     23.498636     46.997272
     -3.998999     21.990738     21.990738     43.981477
     -3.988989     22.136775     22.136775     44.273550
     -3.978979     23.890126     23.890126     47.780252
     -3.968969     27.023921     27.023921     54.047842
     -3.958959     31.244817     31.244817     62.489635
     -3.948949     36.248416     36.248416     72.496831
     -3.938939     41.731665     41.731665     83.463331
     -3.928929     47.403467     47.403467     94.806933
     -3.918919     53.013669     53.013669    106.027337
     -3.908909     58.380062     58.380062    116.760124
     -3.898899     63.373942     63.373942    126.747883
     -3.888889     67.847326     67.847326    135.694653
     -3.878879     71.532876     71.532876    143.065752
     -3.868869     73.983971     73.983971    147.967942
     -3.858859     74.618027     74.618027    149.236054
     -3.848849     72.878567     72.878567    145.757133
     -3.838839     68.465439     68.465439    136.930878
     -3.828829     61.534632     61.534632    123.069264
     -3.818819     52.768199     52.768199    105.536398
     -3.808809     43.265470     43.265470     86.530940
     -3.798799     34.284341     34.284341     68.568681
     -3.788789     26.925412     26.925412     53.850825
     -3.778779     21.870246     21.870246     43.740493
     -3.768769     19.254179     19.254179     38.508357
     -3.758759     18.697297     18.697297     37.394593
     -3.748749     19.465046     19.465046     38.930091
     -3.738739     20.700829     20.700829     41.401659
     -3.728729     21.666977     21.666977     43.333954
     -3.718719     21.938017     21.938017     43.876035
     -3.708709     21.503328     21.503328     43.006656
     -3.698699     20.753277     20.753277     41.506554
     -3.688689     20.346174     20.346174     40.692349
     -3.678679     20.983655     20.983655     41.967310
     -3.668669     23.154686     23.154686     46.309372
     -3.658659     26.930851     26.930851     53.861703
     -3.648649     31.891747     31.891747     63.783495
     -3.638639     37.219444     37.219444     74.438888
     -3.628629     41.934147     41.934147     83.868295
     -3.618619     45.180412     45.180412     90.360824
     -3.608609     46.451808     46.451808     92.903616
     -3.598599     45.677678     45.677678     91.355356
     -3.588589     43.166536     43.166536     86.333073
     -3.578579     39.460724     39.460724     78.921447
     -3.568569     35.172601     35.172601     70.345202
     -3.558559     30.848293     30.848293     61.696585
     -3.548549     26.873713     26.873713     53.747426
     -3.538539     23.426032     23.426032     46.852063
     -3.528529     20.478593     20.478593     40.957186
     -3.518519     17.865696     17.865696     35.731393
     -3.508509     15.392564     15.392564     30.785128
     -3.498498     12.948632     12.948632     25.897264
     -3.488488     10.574421     10.574421     21.148842
     -3.478478      8.454472      8.454472     16.908943
     -3.468468      6.845992      6.845992     13.691984
     -3.458458      5.979319      5.979319     11.958637
     -3.448448      5.969066      5.969066     11.938132
     -3.438438      6.761780      6.761780     13.523559
     -3.428428      8.132460      8.132460     16.264920
     -3.418418      9.734417      9.734417     19.468835
     -3.408408     11.197569     11.197569     22.395137
     -3.398398     12.252553     12.252553     24.505106
     -3.388388     12.838043     12.838043     25.676086
     -3.378378     13.143485     13.143485     26.286969
     -3.368368     13.561005     13.561005     27.122010
     -3.358358     14.560200     14.560200     29.120399
     -3.348348     16.533211     16.533211     33.066423
     -3.338338     19.663442     19.663442     39.326884
     -3.328328     23.850155     23.850155     47.700310
     -3.318318     28.695096     28.695096     57.390192
     -3.308308     33.548067     33.548067     67.096133
     -3.298298     37.615379     37.615379     75.230757
     -3.288288     40.134416     40.134416     80.268832
     -3.278278     40.588487     40.588487     81.176974
     -3.268268     38.889898     38.889898     77.779797
     -3.258258     35.437596     35.437596     70.875192
     -3.248248     30.994684     30.994684     61.989368
     -3.238238     26.421081     26.421081     52.842162
     -3.228228     22.381077     22.381077     44.762154
     -3.218218     19.164071     19.164071     38.328143
     -3.208208     16.693839     16.693839     33.387678
     -3.198198     14.698848     14.698848     29.397695
     -3.188188     12.938791     12.938791     25.877582
     -3.178178     11.372054     11.372054     22.744107
     -3.168168     10.199036     10.199036     20.398073
     -3.158158      9.786209      9.786209     19.572418
     -3.148148     10.523625     10.523625     21.047250
     -3.138138     12.677882     12.677882     25.355764
     -3.128128     16.284283     16.284283     32.568567
     -3.118118     21.097997     21.097997     42.195993
     -3.108108     26.608358     26.608358     53.216716
     -3.098098     32.113395     32.113395     64.226790
     -3.088088     36.845561     36.845561     73.691122
     -3.078078     40.128437     40.128437     80.256874
     -3.068068     41.528410     41.528410     83.056819
     -3.058058     40.953829     40.953829     81.907658
     -3.048048     38.659933     38.659933     77.319866
     -3.038038     35.148711     35.148711     70.297421
     -3.028028     31.000219     31.000219     62.000438
     -3.018018     26.709081     26.709081     53.418162
     -3.008008     22.599160     22.599160     45.198321
     -2.997998     18.845547     18.845547     37.691095
     -2.987988     15.572414     15.572414     31.144828
     -2.977978     12.957182     12.957182     25.914364
     -2.967968     11.277150     11.277150     22.554301
     -2.957958     10.873215     10.873215     21.746430
     -2.947948     12.047435     12.047435     24.094871
     -2.937938     14.935410     14.935410     29.870819
     -2.927928     19.399257     19.399257     38.798514
     -2.917918     24.981481     24.981481     49.962961
     -2.907908     30.948232     30.948232     61.896464
     -2.897898     36.428296     36.428296     72.856592
     -2.887888     40.619560     40.619560     81.239119
     -2.877878     42.998861     42.998861     85.997722
     -2.867868     43.455286     43.455286     86.910573
     -2.857858     42.287812     42.287812     84.575624
     -2.847848     40.062644     40.062644     80.125287
     -2.837838     37.388965     37.388965     74.777930
     -2.827828     34.710565     34.710565     69.421130
     -2.817818     32.202322     32.202322     64.404644
     -2.807808     29.807119     29.807119     59.614239
     -2.797798     27.377859     27.377859     54.755719
     -2.787788     24.838589     24.838589     49.677179
     -2.777778     22.275659     22.275659     44.551318
     -2.767768     19.915314     19.915314     39.830628
     -2.757758     18.012113     18.012113     36.024226
     -2.747748     16.723727     16.723727     33.447454
     -2.737738     16.051947     16.051947     32.103893
     -2.727728     15.884062     15.884062     31.768123
     -2.717718     16.101151     16.101151     32.202303
     -2.707708     16.673701     16.673701     33.347402
     -2.697698     17.672460     17.672460     35.344921
     -2.687688     19.181427     19.181427     38.362853
     -2.677678     21.172087     21.172087     42.344175
     -2.667668     23.432825     23.432825     46.865651
     -2.657658     25.616609     25.616609     51.233219
     -2.647648     27.390954     27.390954     54.781908
     -2.637638     28.600543     28.600543     57.201085
     -2.627628     29.338501     29.338501     58.677002
     -2.617618     29.879984     29.879984     59.759968
     -2.607608     30.521218     30.521218     61.042437
     -2.597598     31.423737     31.423737     62.847474
     -2.587588     32.548176     32.548176     65.096352
     -2.577578     33.691992     33.691992     67.383984
     -2.567568     34.579285     34.579285     69.158570
     -2.557558     34.938243     34.938243     69.876487
     -2.547548     34.542432     34.542432     69.084864
     -2.537538     33.240437     33.240437     66.480874
     -2.527528     31.006988     31.006988     62.013976
     -2.517518     28.011867     28.011867     56.023734
     -2.507508     24.658815     24.658815     49.317631
     -2.497497     21.539754     21.539754     43.079507
     -2.487487     19.290837     19.290837     38.581674
     -2.477477     18.397180     18.397180     36.794361
     -2.467467     19.030620     19.030620     38.061239
     -2.457457     20.996534     20.996534     41.993067
     -2.447447     23.817913     23.817913     47.635826
     -2.437437     26.922949     26.922949     53.845898
     -2.427427     29.855151     29.855151     59.710303
     -2.417417     32.413250     32.413250     64.826499
     -2.407407     34.658264     34.658264     69.316529
     -2.397397     36.785568     36.785568     73.571137
     -2.387387     38.924079     38.924079     77.848158
     -2.377377     40.963010     40.963010     81.926021
     -2.367367     42.499398     42.499398     84.998797
     -2.357357     42.946965     42.946965     85.893931
     -2.347347     41.769849     41.769849     83.539699
     -2.337337     38.739362     38.739362     77.478724
     -2.327327     34.093937     34.093937     68.187874
     -2.317317     28.525846     28.525846     57.051691
     -2.307307     23.001289     23.001289     46.002578
     -2.297297     18.495581     18.495581     36.991161
     -2.287287     15.750840     15.750840     31.501680
     -2.277277     15.133500     15.133500     30.267001
     -2.267267     16.611794     16.611794     33.223589
     -2.257257     19.826470     19.826470     39.652940
     -2.247247     24.209524     24.209524     48.419049
     -2.237237     29.110015     29.110015     58.220030
     -2.227227     33.898386     33.898386     67.796772
     -2.217217     38.033684     38.033684     76.067368
     -2.207207     41.092423     41.092423     82.184847
     -2.197197     42.773920     42.773920     85.547841
     -2.187187     42.906950     42.906950     85.813900
     -2.177177     41.475620     41.475620     82.951241
     -2.167167     38.656773     38.656773     77.313546
     -2.157157     34.832941     34.832941     69.665883
     -2.147147     30.539561     30.539561     61.079122
     -2.137137     26.336304     26.336304     52.672608
     -2.127127     22.644700     22.644700     45.289400
     -2.117117     19.629441     19.629441     39.258883
     -2.107107     17.187754     17.187754     34.375507
     -2.097097     15.053225     15.053225     30.106451
     -2.087087     12.956007     12.956007     25.912015
     -2.077077     10.754126     10.754126     21.508252
     -2.067067      8.476598      8.476598     16.953197
     -2.057057      6.275725      6.275725     12.551450
     -2.047047      4.333530      4.333530      8.667060
     -2.037037      2.779081      2.779081      5.558162
     -2.027027      1.651434      1.651434      3.302868
     -2.017017      0.909658      0.909658      1.819316
     -2.007007      0.469207      0.469207      0.938414
     -1.996997      0.240887      0.240887      0.481773
     -1.986987      0.158607      0.158607      0.317214
     -1.976977      0.193994      0.193994      0.387987
     -1.966967      0.362132      0.362132      0.724263
     -1.956957      0.722069      0.722069      1.444138
     -1.946947      1.371279      1.371279      2.742557
     -1.936937      2.429784      2.429784      4.859567
     -1.926927      4.010890      4.010890      8.021780
     -1.916917      6.182380      6.182380     12.364760
     -1.906907      8.930906      8.930906     17.861812
     -1.896897     12.145989     12.145989     24.291979
     -1.886887     15.632967     15.632967     31.265934
     -1.876877     19.148915     19.148915     38.297830
     -1.866867     22.443208     22.443208     44.886416
     -1.856857     25.285883     25.285883     50.571766
     -1.846847     27.481633     27.481633     54.963266
     -1.836837     28.880876     28.880876     57.761753
     -1.826827     29.397579     29.397579     58.795157
     -1.816817     29.027770     29.027770     58.055540
     -1.806807     27.850661     27.850661     55.701321
     -1.796797     26.001779     26.001779     52.003557
     -1.786787     23.630351     23.630351     47.260701
     -1.776777     20.869076     20.869076     41.738153
     -1.766767     17.836012     17.836012     35.672024
     -1.756757     14.661304     14.661304     29.322608
     -1.746747     11.510336     11.510336     23.020672
     -1.736737      8.578489      8.578489     17.156979
     -1.726727      6.057011      6.057011     12.114023
     -1.716717      4.092661      4.092661      8.185323
     -1.706707      2.767079      2.767079      5.534159
     -1.696697      2.104877      2.104877      4.209754
     -1.686687      2.097246      2.097246      4.194491
     -1.676677      2.716948      2.716948      5.433896
     -1.666667      3.907634      3.907634      7.815268
     -1.656657      5.550557      5.550557     11.101114
     -1.646647      7.432754      7.432754     14.865509
     -1.636637      9.249204      9.249204     18.498408
     -1.626627     10.659402     10.659402     21.318804
