# EIG2DOS: Utility for SIESTA to obtain the electronic density of states
#  E. Artacho, Apr 1999, A. Garcia, Apr 2012
#  Nick R. Papior, Feb 2017
# ------------------------------------------
# Eigenvalues calculated from a non-polarized calculation
# Eigenvalues read from siesta.EIG
# Kpoint weights read from siesta.KP
# Using smearing parameter:   0.0500
# Using 1000 points in the energy range
# Selected bands: 1 to: 2981
# Emin, Emax in file for selected band(s):    -27.0778944    218.3263820
# Nbands, Nspin, Nk   =   2981     1     1
# E_F                 =    -4.2859 eV --> (shifted to ZERO)
# Broadening          =     0.0500 eV
#
#        E            N(up)  (=)   N(down)         Ntot
     -5.000000     41.203544     41.203544     82.407088
     -4.989990     42.795359     42.795359     85.590717
     -4.979980     43.979217     43.979217     87.958433
     -4.969970     44.547087     44.547087     89.094173
     -4.959960     44.266233     44.266233     88.532466
     -4.949950     42.995646     42.995646     85.991291
     -4.939940     40.776926     40.776926     81.553853
     -4.929930     37.871475     37.871475     75.742950
     -4.919920     34.746313     34.746313     69.492627
     -4.909910     32.023801     32.023801     64.047601
     -4.899900     30.400355     30.400355     60.800710
     -4.889890     30.522037     30.522037     61.044073
     -4.879880     32.807639     32.807639     65.615277
     -4.869870     37.247598     37.247598     74.495196
     -4.859860     43.261291     43.261291     86.522582
     -4.849850     49.719136     49.719136     99.438273
     -4.839840     55.188737     55.188737    110.377474
     -4.829830     58.353288     58.353288    116.706576
     -4.819820     58.439292     58.439292    116.878583
     -4.809810     55.459428     55.459428    110.918855
     -4.799800     50.158879     50.158879    100.317757
     -4.789790     43.703804     43.703804     87.407609
     -4.779780     37.273443     37.273443     74.546886
     -4.769770     31.738282     31.738282     63.476565
     -4.759760     27.526846     27.526846     55.053693
     -4.749750     24.670072     24.670072     49.340144
     -4.739740     22.939413     22.939413     45.878825
     -4.729730     21.990425     21.990425     43.980849
     -4.719720     21.463350     21.463350     42.926700
     -4.709710     21.035402     21.035402     42.070804
     -4.699700     20.443406     20.443406     40.886812
     -4.689690     19.500241     19.500241     39.000482
     -4.679680     18.121563     18.121563     36.243125
     -4.669670     16.365138     16.365138     32.730275
     -4.659660     14.468284     14.468284     28.936568
     -4.649650     12.857785     12.857785     25.715569
     -4.639640     12.108268     12.108268     24.216536
     -4.629630     12.838427     12.838427     25.676854
     -4.619620     15.553075     15.553075     31.106150
     -4.609610     20.459540     20.459540     40.919080
     -4.599600     27.309445     27.309445     54.618889
     -4.589590     35.335360     35.335360     70.670721
     -4.579580     43.347234     43.347234     86.694467
     -4.569570     50.007171     50.007171    100.014341
     -4.559560     54.219129     54.219129    108.438257
     -4.549550     55.493151     55.493151    110.986301
     -4.539540     54.125586     54.125586    108.251171
     -4.529530     51.102582     51.102582    102.205165
     -4.519520     47.756221     47.756221     95.512443
     -4.509510     45.314461     45.314461     90.628922
     -4.499499     44.526151     44.526151     89.052301
     -4.489489     45.493123     45.493123     90.986246
     -4.479479     47.736882     47.736882     95.473763
     -4.469469     50.428085     50.428085    100.856171
     -4.459459     52.661768     52.661768    105.323537
     -4.449449     53.680989     53.680989    107.361977
     -4.439439     53.008987     53.008987    106.017974
     -4.429429     50.502126     50.502126    101.004253
     -4.419419     46.353886     46.353886     92.707772
     -4.409409     41.064914     41.064914     82.129827
     -4.399399     35.370227     35.370227     70.740455
     -4.389389     30.109226     30.109226     60.218452
     -4.379379     26.046384     26.046384     52.092769
     -4.369369     23.686062     23.686062     47.372125
     -4.359359     23.147155     23.147155     46.294309
     -4.349349     24.152569     24.152569     48.305139
     -4.339339     26.145523     26.145523     52.291045
     -4.329329     28.490696     28.490696     56.981391
     -4.319319     30.682342     30.682342     61.364685
     -4.309309     32.482149     32.482149     64.964299
     -4.299299     33.944218     33.944218     67.888436
     -4.289289     35.331438     35.331438     70.662876
     -4.279279     36.962594     36.962594     73.925188
     -4.269269     39.042856     39.042856     78.085712
     -4.259259     41.529075     41.529075     83.058149
     -4.249249     44.075946     44.075946     88.151893
     -4.239239     46.097361     46.097361     92.194721
     -4.229229     46.945854     46.945854     93.891708
     -4.219219     46.159194     46.159194     92.318388
     -4.209209     43.671763     43.671763     87.343526
     -4.199199     39.881880     39.881880     79.763761
     -4.189189     35.526596     35.526596     71.053192
     -4.179179     31.416030     31.416030     62.832059
     -4.169169     28.156557     28.156557     56.313115
     -4.159159     25.994266     25.994266     51.988531
     -4.149149     24.837735     24.837735     49.675469
     -4.139139     24.422141     24.422141     48.844283
     -4.129129     24.512311     24.512311     49.024622
     -4.119119     25.037126     25.037126     50.074251
     -4.109109     26.091542     26.091542     52.183085
     -4.099099     27.809259     27.809259     55.618518
     -4.089089     30.173762     30.173762     60.347524
     -4.079079     32.874832     32.874832     65.749664
     -4.069069     35.308784     35.308784     70.617568
     -4.059059     36.754795     36.754795     73.509591
     -4.049049     36.661213     36.661213     73.322425
     -4.039039     34.901472     34.901472     69.802944
     -4.029029     31.862904     31.862904     63.725808
     -4.019019     28.319495     28.319495     56.638990
     -4.009009     25.158360     25.158360     50.316719
     -3.998999     23.102207     23.102207     46.204415
     -3.988989     22.552515     22.552515     45.105031
     -3.978979     23.590394     23.590394     47.180788
     -3.968969     26.079702     26.079702     52.159404
     -3.958959     29.780194     29.780194     59.560388
     -3.948949     34.410492     34.410492     68.820983
     -3.938939     39.663757     39.663757     79.327513
     -3.928929     45.218788     45.218788     90.437576
     -3.918919     50.778089     50.778089    101.556177
     -3.908909     56.119615     56.119615    112.239231
     -3.898899     61.114634     61.114634    122.229267
     -3.888889     65.673570     65.673570    131.347140
     -3.878879     69.631578     69.631578    139.263156
     -3.868869     72.639995     72.639995    145.279989
     -3.858859     74.148136     74.148136    148.296272
     -3.848849     73.523832     73.523832    147.047664
     -3.838839     70.286989     70.286989    140.573977
     -3.828829     64.359787     64.359787    128.719573
     -3.818819     56.212586     56.212586    112.425173
     -3.808809     46.824035     46.824035     93.648070
     -3.798799     37.457359     37.457359     74.914718
     -3.788789     29.336256     29.336256     58.672513
     -3.778779     23.340522     23.340522     46.681044
     -3.768769     19.820922     19.820922     39.641844
     -3.758759     18.575880     18.575880     37.151761
     -3.748749     18.973888     18.973888     37.947777
     -3.738739     20.169174     20.169174     40.338348
     -3.728729     21.347384     21.347384     42.694768
     -3.718719     21.943021     21.943021     43.886042
     -3.708709     21.781293     21.781293     43.562586
     -3.698699     21.111027     21.111027     42.222055
     -3.688689     20.515050     20.515050     41.030099
     -3.678679     20.712566     20.712566     41.425131
     -3.668669     22.302241     22.302241     44.604481
     -3.658659     25.524443     25.524443     51.048887
     -3.648649     30.129853     30.129853     60.259705
     -3.638639     35.414415     35.414415     70.828829
     -3.628629     40.418335     40.418335     80.836669
     -3.618619     44.214506     44.214506     88.429013
     -3.608609     46.170147     46.170147     92.340294
     -3.598599     46.082988     46.082988     92.165976
     -3.588589     44.161117     44.161117     88.322234
     -3.578579     40.889245     40.889245     81.778491
     -3.568569     36.858273     36.858273     73.716547
     -3.558559     32.619042     32.619042     65.238084
     -3.548549     28.583564     28.583564     57.167129
     -3.538539     24.973696     24.973696     49.947391
     -3.528529     21.817466     21.817466     43.634932
     -3.518519     18.997796     18.997796     37.995592
     -3.508509     16.346474     16.346474     32.692948
     -3.498498     13.751593     13.751593     27.503186
     -3.488488     11.232357     11.232357     22.464715
     -3.478478      8.948367      8.948367     17.896734
     -3.468468      7.143682      7.143682     14.287363
     -3.458458      6.055267      6.055267     12.110535
     -3.448448      5.823549      5.823549     11.647098
     -3.438438      6.432770      6.432770     12.865541
     -3.428428      7.695519      7.695519     15.391038
     -3.418418      9.287854      9.287854     18.575708
     -3.408408     10.834146     10.834146     21.668292
     -3.398398     12.025305     12.025305     24.050609
     -3.388388     12.732939     12.732939     25.465879
     -3.378378     13.071155     13.071155     26.142310
     -3.368368     13.372419     13.372419     26.744839
     -3.358358     14.081698     14.081698     28.163397
     -3.348348     15.610945     15.610945     31.221889
     -3.338338     18.208354     18.208354     36.416709
     -3.328328     21.877349     21.877349     43.754698
     -3.318318     26.348954     26.348954     52.697908
     -3.308308     31.096594     31.096594     62.193189
     -3.298298     35.393692     35.393692     70.787384
     -3.288288     38.430870     38.430870     76.861739
     -3.278278     39.499152     39.499152     78.998304
     -3.268268     38.200900     38.200900     76.401800
     -3.258258     34.603855     34.603855     69.207709
     -3.248248     29.252786     29.252786     58.505572
     -3.238238     23.014059     23.014059     46.028118
     -3.228228     16.815219     16.815219     33.630438
     -3.218218     11.394380     11.394380     22.788760
     -3.208208      7.158552      7.158552     14.317104
     -3.198198      4.183379      4.183379      8.366757
     -3.188188      2.317974      2.317974      4.635948
     -3.178178      1.326995      1.326995      2.653990
     -3.168168      1.012688      1.012688      2.025375
     -3.158158      1.290139      1.290139      2.580278
     -3.148148      2.213660      2.213660      4.427319
     -3.138138      3.960041      3.960041      7.920083
     -3.128128      6.771040      6.771040     13.542079
     -3.118118     10.856087     10.856087     21.712174
     -3.108108     16.266979     16.266979     32.533958
     -3.098098     22.778136     22.778136     45.556272
     -3.088088     29.825986     29.825986     59.651972
     -3.078078     36.559788     36.559788     73.119576
     -3.068068     42.021165     42.021165     84.042330
     -3.058058     45.408550     45.408550     90.817099
     -3.048048     46.326786     46.326786     92.653572
     -3.038038     44.910374     44.910374     89.820749
     -3.028028     41.759227     41.759227     83.518453
     -3.018018     37.715723     37.715723     75.431445
     -3.008008     33.588208     33.588208     67.176416
     -2.997998     29.942864     29.942864     59.885729
     -2.987988     27.037919     27.037919     54.075839
     -2.977978     24.897211     24.897211     49.794422
     -2.967968     23.459593     23.459593     46.919186
     -2.957958     22.720040     22.720040     45.440080
     -2.947948     22.794241     22.794241     45.588481
     -2.937938     23.876798     23.876798     47.753595
     -2.927928     26.111272     26.111272     52.222544
     -2.917918     29.434769     29.434769     58.869538
     -2.907908     33.481376     33.481376     66.962752
     -2.897898     37.610351     37.610351     75.220701
     -2.887888     41.067796     41.067796     82.135592
     -2.877878     43.221315     43.221315     86.442631
     -2.867868     43.764315     43.764315     87.528630
     -2.857858     42.796188     42.796188     85.592375
     -2.847848     40.742875     40.742875     81.485751
     -2.837838     38.158645     38.158645     76.317291
     -2.827828     35.504584     35.504584     71.009168
     -2.817818     33.005295     33.005295     66.010589
     -2.807808     30.641090     30.641090     61.282179
     -2.797798     28.262358     28.262358     56.524717
     -2.787788     25.752378     25.752378     51.504755
     -2.777778     23.145496     23.145496     46.290992
     -2.767768     20.638714     20.638714     41.277428
     -2.757758     18.498563     18.498563     36.997126
     -2.747748     16.925979     16.925979     33.851958
     -2.737738     15.964695     15.964695     31.929390
     -2.727728     15.509695     15.509695     31.019389
     -2.717718     15.408023     15.408023     30.816046
     -2.707708     15.583836     15.583836     31.167673
     -2.697698     16.101764     16.101764     32.203528
     -2.687688     17.120952     17.120952     34.241904
     -2.677678     18.764184     18.764184     37.528369
     -2.667668     20.986161     20.986161     41.972322
     -2.657658     23.531555     23.531555     47.063110
     -2.647648     26.019328     26.019328     52.038656
     -2.637638     28.108242     28.108242     56.216484
     -2.627628     29.644054     29.644054     59.288109
     -2.617618     30.700233     30.700233     61.400466
     -2.607608     31.494497     31.494497     62.988995
     -2.597598     32.242867     32.242867     64.485734
     -2.587588     33.043881     33.043881     66.087762
     -2.577578     33.849251     33.849251     67.698503
     -2.567568     34.508232     34.508232     69.016464
     -2.557558     34.829955     34.829955     69.659910
     -2.547548     34.621824     34.621824     69.243649
     -2.537538     33.710196     33.710196     67.420391
     -2.527528     31.979787     31.979787     63.959574
     -2.517518     29.449249     29.449249     58.898498
     -2.507508     26.350448     26.350448     52.700896
     -2.497497     23.147160     23.147160     46.294321
     -2.487487     20.448371     20.448371     40.896743
     -2.477477     18.831369     18.831369     37.662739
     -2.467467     18.647861     18.647861     37.295722
     -2.457457     19.903925     19.903925     39.807849
     -2.447447     22.272574     22.272574     44.545148
     -2.437437     25.235553     25.235553     50.471107
     -2.427427     28.290369     28.290369     56.580739
     -2.417417     31.127380     31.127380     62.254759
     -2.407407     33.694531     33.694531     67.389062
     -2.397397     36.120011     36.120011     72.240022
     -2.387387     38.532702     38.532702     77.065403
     -2.377377     40.873799     40.873799     81.747599
     -2.367367     42.802734     42.802734     85.605469
     -2.357357     43.759043     43.759043     87.518086
     -2.347347     43.166577     43.166577     86.333154
     -2.337337     40.693183     40.693183     81.386365
     -2.327327     36.445913     36.445913     72.891826
     -2.317317     31.008887     31.008887     62.017774
     -2.307307     25.305291     25.305291     50.610582
     -2.297297     20.345329     20.345329     40.690659
     -2.287287     16.964270     16.964270     33.928540
     -2.277277     15.641663     15.641663     31.283326
     -2.267267     16.442719     16.442719     32.885438
     -2.257257     19.070476     19.070476     38.140952
     -2.247247     22.987036     22.987036     45.974072
     -2.237237     27.555744     27.555744     55.111487
     -2.227227     32.163394     32.163394     64.326789
     -2.217217     36.295250     36.295250     72.590500
     -2.207207     39.555600     39.555600     79.111199
     -2.197197     41.651337     41.651337     83.302673
     -2.187187     42.374784     42.374784     84.749568
     -2.177177     41.619355     41.619355     83.238710
     -2.167167     39.432107     39.432107     78.864213
     -2.157157     36.066693     36.066693     72.133385
     -2.147147     31.979592     31.979592     63.959184
     -2.137137     27.734715     27.734715     55.469429
     -2.127127     23.838614     23.838614     47.677228
     -2.117117     20.582045     20.582045     41.164091
     -2.107107     17.971957     17.971957     35.943914
     -2.097097     15.790509     15.790509     31.581017
     -2.087087     13.745192     13.745192     27.490383
     -2.077077     11.625803     11.625803     23.251607
     -2.067067      9.390004      9.390004     18.780008
     -2.057057      7.149848      7.149848     14.299695
     -2.047047      5.088957      5.088957     10.177915
     -2.037037      3.368149      3.368149      6.736297
     -2.027027      2.066780      2.066780      4.133561
     -2.017017      1.174800      1.174800      2.349601
     -2.007007      0.621483      0.621483      1.242967
     -1.996997      0.316009      0.316009      0.632018
     -1.986987      0.180995      0.180995      0.361989
     -1.976977      0.172478      0.172478      0.344956
     -1.966967      0.288836      0.288836      0.577671
     -1.956957      0.572990      0.572990      1.145981
     -1.946947      1.108677      1.108677      2.217354
     -1.936937      2.006988      2.006988      4.013976
     -1.926927      3.378437      3.378437      6.756874
     -1.916917      5.290939      5.290939     10.581879
     -1.906907      7.723905      7.723905     15.447811
     -1.896897     10.537193     10.537193     21.074385
     -1.886887     13.473655     13.473655     26.947309
     -1.876877     16.202703     16.202703     32.405407
     -1.866867     18.394975     18.394975     36.789951
     -1.856857     19.804907     19.804907     39.609814
     -1.846847     20.335226     20.335226     40.670451
     -1.836837     20.063309     20.063309     40.126618
     -1.826827     19.218677     19.218677     38.437355
     -1.816817     18.112246     18.112246     36.224491
     -1.806807     17.034311     17.034311     34.068623
     -1.796797     16.157529     16.157529     32.315058
     -1.786787     15.490381     15.490381     30.980763
     -1.776777     14.910662     14.910662     29.821324
     -1.766767     14.267404     14.267404     28.534808
     -1.756757     13.496458     13.496458     26.992915
     -1.746747     12.680850     12.680850     25.361700
     -1.736737     12.016663     12.016663     24.033326
     -1.726727     11.702247     11.702247     23.404493
     -1.716717     11.816878     11.816878     23.633755
     -1.706707     12.263162     12.263162     24.526324
     -1.696697     12.810036     12.810036     25.620072
     -1.686687     13.212764     13.212764     26.425528
     -1.676677     13.339372     13.339372     26.678745
     -1.666667     13.228130     13.228130     26.456261
     -1.656657     13.041737     13.041737     26.083474
     -1.646647     12.946632     12.946632     25.893263
     -1.636637     12.991892     12.991892     25.983783
     -1.626627     13.062900     13.062900     26.125799
