# EIG2DOS: Utility for SIESTA to obtain the electronic density of states
#  E. Artacho, Apr 1999, A. Garcia, Apr 2012
#  Nick R. Papior, Feb 2017
# ------------------------------------------
# Eigenvalues calculated from a non-polarized calculation
# Eigenvalues read from siesta.EIG
# Kpoint weights read from siesta.KP
# Using smearing parameter:   0.0500
# Using 1000 points in the energy range
# Selected bands: 1 to: 2981
# Emin, Emax in file for selected band(s):    -27.1011036    218.3266340
# Nbands, Nspin, Nk   =   2981     1     1
# E_F                 =    -4.2798 eV --> (shifted to ZERO)
# Broadening          =     0.0500 eV
#
#        E            N(up)  (=)   N(down)         Ntot
     -5.000000     44.098887     44.098887     88.197774
     -4.989990     45.113046     45.113046     90.226092
     -4.979980     45.364171     45.364171     90.728343
     -4.969970     44.817834     44.817834     89.635668
     -4.959960     43.456790     43.456790     86.913580
     -4.949950     41.332839     41.332839     82.665678
     -4.939940     38.611406     38.611406     77.222812
     -4.929930     35.596999     35.596999     71.193999
     -4.919920     32.736837     32.736837     65.473674
     -4.909910     30.597322     30.597322     61.194645
     -4.899900     29.796932     29.796932     59.593864
     -4.889890     30.875397     30.875397     61.750794
     -4.879880     34.101814     34.101814     68.203627
     -4.869870     39.275156     39.275156     78.550313
     -4.859860     45.619749     45.619749     91.239498
     -4.849850     51.877762     51.877762    103.755523
     -4.839840     56.624599     56.624599    113.249198
     -4.829830     58.710787     58.710787    117.421574
     -4.819820     57.642511     57.642511    115.285022
     -4.809810     53.722826     53.722826    107.445652
     -4.799800     47.892192     47.892192     95.784384
     -4.789790     41.359582     41.359582     82.719163
     -4.779780     35.207106     35.207106     70.414213
     -4.769770     30.131761     30.131761     60.263522
     -4.759760     26.386564     26.386564     52.773127
     -4.749750     23.877119     23.877119     47.754237
     -4.739740     22.319552     22.319552     44.639103
     -4.729730     21.379181     21.379181     42.758362
     -4.719720     20.752840     20.752840     41.505681
     -4.709710     20.196751     20.196751     40.393503
     -4.699700     19.523458     19.523458     39.046915
     -4.689690     18.598031     18.598031     37.196062
     -4.679680     17.357617     17.357617     34.715234
     -4.669670     15.859113     15.859113     31.718227
     -4.659660     14.333774     14.333774     28.667548
     -4.649650     13.209772     13.209772     26.419545
     -4.639640     13.066576     13.066576     26.133151
     -4.629630     14.507808     14.507808     29.015616
     -4.619620     17.971566     17.971566     35.943132
     -4.609610     23.528620     23.528620     47.057239
     -4.599600     30.741943     30.741943     61.483885
     -4.589590     38.664453     38.664453     77.328906
     -4.579580     46.020612     46.020612     92.041224
     -4.569570     51.548083     51.548083    103.096166
     -4.559560     54.392784     54.392784    108.785568
     -4.549550     54.402389     54.402389    108.804778
     -4.539540     52.188523     52.188523    104.377046
     -4.529530     48.922750     48.922750     97.845500
     -4.519520     45.946666     45.946666     91.893332
     -4.509510     44.349566     44.349566     88.699133
     -4.499499     44.664351     44.664351     89.328701
     -4.489489     46.765763     46.765763     93.531526
     -4.479479     49.968534     49.968534     99.937068
     -4.469469     53.260140     53.260140    106.520280
     -4.459459     55.582594     55.582594    111.165187
     -4.449449     56.090642     56.090642    112.181283
     -4.439439     54.338224     54.338224    108.676448
     -4.429429     50.366210     50.366210    100.732420
     -4.419419     44.681553     44.681553     89.363105
     -4.409409     38.136457     38.136457     76.272914
     -4.399399     31.736276     31.736276     63.472553
     -4.389389     26.420464     26.420464     52.840927
     -4.379379     22.866380     22.866380     45.732761
     -4.369369     21.360683     21.360683     42.721366
     -4.359359     21.769444     21.769444     43.538887
     -4.349349     23.616215     23.616215     47.232430
     -4.339339     26.247279     26.247279     52.494558
     -4.329329     29.032796     29.032796     58.065592
     -4.319319     31.536720     31.536720     63.073440
     -4.309309     33.600048     33.600048     67.200095
     -4.299299     35.318381     35.318381     70.636763
     -4.289289     36.935889     36.935889     73.871778
     -4.279279     38.701210     38.701210     77.402420
     -4.269269     40.731037     40.731037     81.462074
     -4.259259     42.917053     42.917053     85.834107
     -4.249249     44.905788     44.905788     89.811575
     -4.239239     46.174743     46.174743     92.349485
     -4.229229     46.203683     46.203683     92.407366
     -4.219219     44.691476     44.691476     89.382951
     -4.209209     41.722778     41.722778     83.445556
     -4.199199     37.788795     37.788795     75.577589
     -4.189189     33.631243     33.631243     67.262486
     -4.179179     29.976027     29.976027     59.952054
     -4.169169     27.288121     27.288121     54.576241
     -4.159159     25.666465     25.666465     51.332931
     -4.149149     24.916945     24.916945     49.833890
     -4.139139     24.746181     24.746181     49.492362
     -4.129129     24.963154     24.963154     49.926307
     -4.119119     25.581285     25.581285     51.162571
     -4.109109     26.768792     26.768792     53.537583
     -4.099099     28.672526     28.672526     57.345053
     -4.089089     31.209730     31.209730     62.419459
     -4.079079     33.951871     33.951871     67.903743
     -4.069069     36.191245     36.191245     72.382490
     -4.059059     37.187773     37.187773     74.375546
     -4.049049     36.485869     36.485869     72.971738
     -4.039039     34.137363     34.137363     68.274725
     -4.029029     30.709590     30.709590     61.419179
     -4.019019     27.076720     27.076720     54.153440
     -4.009009     24.110842     24.110842     48.221685
     -3.998999     22.430543     22.430543     44.861087
     -3.988989     22.308173     22.308173     44.616346
     -3.978979     23.730222     23.730222     47.460445
     -3.968969     26.524264     26.524264     53.048527
     -3.958959     30.458519     30.458519     60.917037
     -3.948949     35.275810     35.275810     70.551620
     -3.938939     40.689059     40.689059     81.378118
     -3.928929     46.389162     46.389162     92.778324
     -3.918919     52.086925     52.086925    104.173850
     -3.908909     57.561490     57.561490    115.122979
     -3.898899     62.664467     62.664467    125.328934
     -3.888889     67.253448     67.253448    134.506897
     -3.878879     71.083242     71.083242    142.166484
     -3.868869     73.727671     73.727671    147.455341
     -3.858859     74.605453     74.605453    149.210906
     -3.848849     73.135380     73.135380    146.270759
     -3.838839     68.973587     68.973587    137.947174
     -3.828829     62.229890     62.229890    124.459779
     -3.818819     53.554703     53.554703    107.109407
     -3.808809     44.039845     44.039845     88.079690
     -3.798799     34.959236     34.959236     69.918472
     -3.788789     27.444853     27.444853     54.889706
     -3.778779     22.214292     22.214292     44.428584
     -3.768769     19.434842     19.434842     38.869684
     -3.758759     18.749616     18.749616     37.499233
     -3.748749     19.436762     19.436762     38.873524
     -3.738739     20.642492     20.642492     41.284984
     -3.728729     21.622991     21.622991     43.245982
     -3.718719     21.938839     21.938839     43.877678
     -3.708709     21.559611     21.559611     43.119222
     -3.698699     20.853429     20.853429     41.706858
     -3.688689     20.458766     20.458766     40.917531
     -3.678679     21.065197     21.065197     42.130395
     -3.668669     23.161728     23.161728     46.323455
     -3.658659     26.833618     26.833618     53.667236
     -3.648649     31.685289     31.685289     63.370579
     -3.638639     36.928215     36.928215     73.856430
     -3.628629     41.607714     41.607714     83.215428
     -3.618619     44.881284     44.881284     89.762568
     -3.608609     46.239598     46.239598     92.479195
     -3.598599     45.595061     45.595061     91.190121
     -3.588589     43.231078     43.231078     86.462157
     -3.578579     39.663714     39.663714     79.327428
     -3.568569     35.483495     35.483495     70.966990
     -3.558559     31.222445     31.222445     62.444891
     -3.548549     27.261410     27.261410     54.522820
     -3.538539     23.781421     23.781421     47.562841
     -3.528529     20.767339     20.767339     41.534678
     -3.518519     18.070154     18.070154     36.140307
     -3.508509     15.513481     15.513481     31.026962
     -3.498498     13.003118     13.003118     26.006236
     -3.488488     10.590876     10.590876     21.181753
     -3.478478      8.465822      8.465822     16.931645
     -3.468468      6.882579      6.882579     13.765158
     -3.458458      6.062297      6.062297     12.124594
     -3.448448      6.104876      6.104876     12.209753
     -3.438438      6.938621      6.938621     13.877242
     -3.428428      8.320378      8.320378     16.640755
     -3.418418      9.890571      9.890571     19.781142
     -3.408408     11.276673     11.276673     22.553346
     -3.398398     12.219928     12.219928     24.439856
     -3.388388     12.680870     12.680870     25.361740
     -3.378378     12.876204     12.876204     25.752409
     -3.368368     13.223142     13.223142     26.446285
     -3.358358     14.207503     14.207503     28.415005
     -3.348348     16.224338     16.224338     32.448676
     -3.338338     19.444591     19.444591     38.889182
     -3.328328     23.740097     23.740097     47.480194
     -3.318318     28.673296     28.673296     57.346593
     -3.308308     33.547695     33.547695     67.095390
     -3.298298     37.520016     37.520016     75.040031
     -3.288288     39.774093     39.774093     79.548185
     -3.278278     39.731766     39.731766     79.463531
     -3.268268     37.236716     37.236716     74.473433
     -3.258258     32.628908     32.628908     65.257815
     -3.248248     26.659605     26.659605     53.319211
     -3.238238     20.270889     20.270889     40.541778
     -3.228228     14.332401     14.332401     28.664802
     -3.218218      9.444955      9.444955     18.889910
     -3.208208      5.876631      5.876631     11.753262
     -3.198198      3.625566      3.625566      7.251131
     -3.188188      2.550032      2.550032      5.100064
     -3.178178      2.494533      2.494533      4.989067
     -3.168168      3.363697      3.363697      6.727395
     -3.158158      5.131395      5.131395     10.262791
     -3.148148      7.801364      7.801364     15.602728
     -3.138138     11.349251     11.349251     22.698502
     -3.128128     15.674293     15.674293     31.348587
     -3.118118     20.576432     20.576432     41.152863
     -3.108108     25.759894     25.759894     51.519789
     -3.098098     30.856634     30.856634     61.713268
     -3.088088     35.465736     35.465736     70.931473
     -3.078078     39.210170     39.210170     78.420339
     -3.068068     41.806872     41.806872     83.613744
     -3.058058     43.127984     43.127984     86.255969
     -3.048048     43.217106     43.217106     86.434212
     -3.038038     42.237925     42.237925     84.475850
     -3.028028     40.375516     40.375516     80.751033
     -3.018018     37.752583     37.752583     75.505165
     -3.008008     34.423885     34.423885     68.847770
     -2.997998     30.461721     30.461721     60.923441
     -2.987988     26.078563     26.078563     52.157127
     -2.977978     21.702052     21.702052     43.404105
     -2.967968     17.945315     17.945315     35.890631
     -2.957958     15.477385     15.477385     30.954770
     -2.947948     14.847555     14.847555     29.695109
     -2.937938     16.327318     16.327318     32.654637
     -2.927928     19.813693     19.813693     39.627387
     -2.917918     24.814446     24.814446     49.628892
     -2.907908     30.522477     30.522477     61.044953
     -2.897898     35.975381     35.975381     71.950762
     -2.887888     40.274111     40.274111     80.548222
     -2.877878     42.803948     42.803948     85.607897
     -2.867868     43.381902     43.381902     86.763803
     -2.857858     42.268564     42.268564     84.537128
     -2.847848     40.032580     40.032580     80.065159
     -2.837838     37.320449     37.320449     74.640898
     -2.827828     34.629064     34.629064     69.258128
     -2.817818     32.176817     32.176817     64.353634
     -2.807808     29.919696     29.919696     59.839391
     -2.797798     27.686422     27.686422     55.372844
     -2.787788     25.349600     25.349600     50.699199
     -2.777778     22.938437     22.938437     45.876874
     -2.767768     20.638520     20.638520     41.277041
     -2.757758     18.692313     18.692313     37.384626
     -2.747748     17.271335     17.271335     34.542670
     -2.737738     16.403647     16.403647     32.807294
     -2.727728     16.000544     16.000544     32.001088
     -2.717718     15.958655     15.958655     31.917311
     -2.707708     16.261423     16.261423     32.522845
     -2.697698     17.002780     17.002780     34.005560
     -2.687688     18.308884     18.308884     36.617769
     -2.677678     20.207030     20.207030     40.414061
     -2.667668     22.534134     22.534134     45.068268
     -2.657658     24.957674     24.957674     49.915349
     -2.647648     27.109269     27.109269     54.218539
     -2.637638     28.753311     28.753311     57.506622
     -2.627628     29.885538     29.885538     59.771076
     -2.617618     30.700942     30.700942     61.401883
     -2.607608     31.456436     31.456436     62.912872
     -2.597598     32.318858     32.318858     64.637717
     -2.587588     33.286539     33.286539     66.573077
     -2.577578     34.209947     34.209947     68.419893
     -2.567568     34.868154     34.868154     69.736309
     -2.557558     35.037693     35.037693     70.075385
     -2.547548     34.526739     34.526739     69.053478
     -2.537538     33.197750     33.197750     66.395501
     -2.527528     31.014617     31.014617     62.029235
     -2.517518     28.114790     28.114790     56.229579
     -2.507508     24.859081     24.859081     49.718162
     -2.497497     21.799958     21.799958     43.599915
     -2.487487     19.548498     19.548498     39.096996
     -2.477477     18.583088     18.583088     37.166175
     -2.467467     19.084718     19.084718     38.169436
     -2.457457     20.878013     20.878013     41.756025
     -2.447447     23.509096     23.509096     47.018193
     -2.437437     26.428235     26.428235     52.856471
     -2.427427     29.197262     29.197262     58.394524
     -2.417417     31.629914     31.629914     63.259827
     -2.407407     33.802249     33.802249     67.604499
     -2.397397     35.928205     35.928205     71.856409
     -2.387387     38.157753     38.157753     76.315505
     -2.377377     40.394976     40.394976     80.789952
     -2.367367     42.231690     42.231690     84.463381
     -2.357357     43.045537     43.045537     86.091074
     -2.347347     42.235428     42.235428     84.470857
     -2.337337     39.495572     39.495572     78.991143
     -2.327327     35.001349     35.001349     70.002698
     -2.317317     29.417563     29.417563     58.835127
     -2.307307     23.725047     23.725047     47.450094
     -2.297297     18.945886     18.945886     37.891772
     -2.287287     15.882072     15.882072     31.764144
     -2.277277     14.954965     14.954965     29.909930
     -2.267267     16.172229     16.172229     32.344458
     -2.257257     19.196507     19.196507     38.393013
     -2.247247     23.468129     23.468129     46.936257
     -2.237237     28.337438     28.337438     56.674877
     -2.227227     33.174699     33.174699     66.349399
     -2.217217     37.438852     37.438852     74.877704
     -2.207207     40.702469     40.702469     81.404939
     -2.197197     42.649738     42.649738     85.299475
     -2.187187     43.077648     43.077648     86.155297
     -2.177177     41.923920     41.923920     83.847841
     -2.167167     39.315752     39.315752     78.631504
     -2.157157     35.599415     35.599415     71.198830
     -2.147147     31.301381     31.301381     62.602763
     -2.137137     27.003443     27.003443     54.006885
     -2.127127     23.171444     23.171444     46.342889
     -2.117117     20.018959     20.018959     40.037917
     -2.107107     17.478573     17.478573     34.957146
     -2.097097     15.295443     15.295443     30.590887
     -2.087087     13.188782     13.188782     26.377564
     -2.077077     10.993645     10.993645     21.987290
     -2.067067      8.717099      8.717099     17.434199
     -2.057057      6.499516      6.499516     12.999032
     -2.047047      4.522875      4.522875      9.045750
     -2.037037      2.924135      2.924135      5.848270
     -2.027027      1.752217      1.752217      3.504433
     -2.017017      0.973545      0.973545      1.947090
     -2.007007      0.506896      0.506896      1.013791
     -1.996997      0.263258      0.263258      0.526516
     -1.986987      0.175500      0.175500      0.351001
     -1.976977      0.214601      0.214601      0.429201
     -1.966967      0.395920      0.395920      0.791839
     -1.956957      0.778669      0.778669      1.557338
     -1.946947      1.457485      1.457485      2.914971
     -1.936937      2.541831      2.541831      5.083663
     -1.926927      4.120889      4.120889      8.241778
     -1.916917      6.219530      6.219530     12.439060
     -1.906907      8.760720      8.760720     17.521440
     -1.896897     11.553773     11.553773     23.107546
     -1.886887     14.320538     14.320538     28.641076
     -1.876877     16.755017     16.755017     33.510034
     -1.866867     18.596304     18.596304     37.192608
     -1.856857     19.690186     19.690186     39.380371
     -1.846847     20.022022     20.022022     40.044044
     -1.836837     19.714256     19.714256     39.428512
     -1.826827     18.988687     18.988687     37.977374
     -1.816817     18.098989     18.098989     36.197978
     -1.806807     17.249874     17.249874     34.499747
     -1.796797     16.534004     16.534004     33.068009
     -1.786787     15.921319     15.921319     31.842639
     -1.776777     15.313892     15.313892     30.627784
     -1.766767     14.639229     14.639229     29.278459
     -1.756757     13.923901     13.923901     27.847801
     -1.746747     13.295508     13.295508     26.591016
     -1.736737     12.906018     12.906018     25.812036
     -1.726727     12.824177     12.824177     25.648353
     -1.716717     12.969902     12.969902     25.939804
     -1.706707     13.139816     13.139816     26.279631
     -1.696697     13.115139     13.115139     26.230279
     -1.686687     12.789075     12.789075     25.578151
     -1.676677     12.235715     12.235715     24.471431
     -1.666667     11.675768     11.675768     23.351537
     -1.656657     11.354883     11.354883     22.709765
     -1.646647     11.401341     11.401341     22.802683
     -1.636637     11.742278     11.742278     23.484556
     -1.626627     12.125823     12.125823     24.251645
