# EIG2DOS: Utility for SIESTA to obtain the electronic density of states
#  E. Artacho, Apr 1999, A. Garcia, Apr 2012
#  Nick R. Papior, Feb 2017
# ------------------------------------------
# Eigenvalues calculated from a non-polarized calculation
# Eigenvalues read from siesta.EIG
# Kpoint weights read from siesta.KP
# Using smearing parameter:   0.0500
# Using 1000 points in the energy range
# Selected bands: 1 to: 2981
# Emin, Emax in file for selected band(s):    -27.2862955    218.4119930
# Nbands, Nspin, Nk   =   2981     1     1
# E_F                 =    -4.1853 eV --> (shifted to ZERO)
# Broadening          =     0.0500 eV
#
#        E            N(up)  (=)   N(down)         Ntot
     -5.000000     33.836273     33.836273     67.672546
     -4.989990     39.001845     39.001845     78.003690
     -4.979980     43.507715     43.507715     87.015431
     -4.969970     46.525515     46.525515     93.051031
     -4.959960     47.482028     47.482028     94.964055
     -4.949950     46.252755     46.252755     92.505510
     -4.939940     43.203980     43.203980     86.407961
     -4.929930     39.089160     39.089160     78.178321
     -4.919920     34.865931     34.865931     69.731862
     -4.909910     31.505994     31.505994     63.011987
     -4.899900     29.831519     29.831519     59.663038
     -4.889890     30.372361     30.372361     60.744722
     -4.879880     33.236955     33.236955     66.473910
     -4.869870     38.025310     38.025310     76.050620
     -4.859860     43.845398     43.845398     87.690796
     -4.849850     49.481663     49.481663     98.963326
     -4.839840     53.699533     53.699533    107.399065
     -4.829830     55.590671     55.590671    111.181343
     -4.819820     54.824959     54.824959    109.649919
     -4.809810     51.707329     51.707329    103.414658
     -4.799800     47.025069     47.025069     94.050138
     -4.789790     41.763946     41.763946     83.527892
     -4.779780     36.818494     36.818494     73.636987
     -4.769770     32.802500     32.802500     65.604999
     -4.759760     29.999110     29.999110     59.998221
     -4.749750     28.418685     28.418685     56.837370
     -4.739740     27.894596     27.894596     55.789191
     -4.729730     28.155509     28.155509     56.311018
     -4.719720     28.853405     28.853405     57.706810
     -4.709710     29.571386     29.571386     59.142772
     -4.699700     29.857248     29.857248     59.714497
     -4.689690     29.314560     29.314560     58.629121
     -4.679680     27.740352     27.740352     55.480705
     -4.669670     25.254498     25.254498     50.508996
     -4.659660     22.350837     22.350837     44.701674
     -4.649650     19.825719     19.825719     39.651438
     -4.639640     18.589536     18.589536     37.179072
     -4.629630     19.411456     19.411456     38.822912
     -4.619620     22.669375     22.669375     45.338750
     -4.609610     28.178883     28.178883     56.357765
     -4.599600     35.164853     35.164853     70.329707
     -4.589590     42.413217     42.413217     84.826435
     -4.579580     48.588009     48.588009     97.176018
     -4.569570     52.626774     52.626774    105.253548
     -4.559560     54.071769     54.071769    108.143538
     -4.549550     53.198757     53.198757    106.397514
     -4.539540     50.882297     50.882297    101.764594
     -4.529530     48.250704     48.250704     96.501408
     -4.519520     46.273744     46.273744     92.547488
     -4.509510     45.446343     45.446343     90.892686
     -4.499499     45.678746     45.678746     91.357491
     -4.489489     46.410587     46.410587     92.821175
     -4.479479     46.877924     46.877924     93.755848
     -4.469469     46.413136     46.413136     92.826271
     -4.459459     44.662054     44.662054     89.324108
     -4.449449     41.653028     41.653028     83.306055
     -4.439439     37.723753     37.723753     75.447506
     -4.429429     33.370211     33.370211     66.740422
     -4.419419     29.100986     29.100986     58.201971
     -4.409409     25.352975     25.352975     50.705949
     -4.399399     22.471167     22.471167     44.942335
     -4.389389     20.712185     20.712185     41.424371
     -4.379379     20.227661     20.227661     40.455323
     -4.369369     21.018770     21.018770     42.037541
     -4.359359     22.896668     22.896668     45.793336
     -4.349349     25.498231     25.498231     50.996463
     -4.339339     28.378697     28.378697     56.757394
     -4.329329     31.152492     31.152492     62.304984
     -4.319319     33.617308     33.617308     67.234616
     -4.309309     35.798780     35.798780     71.597560
     -4.299299     37.890384     37.890384     75.780767
     -4.289289     40.111402     40.111402     80.222804
     -4.279279     42.541005     42.541005     85.082009
     -4.269269     44.998129     44.998129     89.996258
     -4.259259     47.025332     47.025332     94.050665
     -4.249249     48.002318     48.002318     96.004637
     -4.239239     47.364815     47.364815     94.729629
     -4.229229     44.850720     44.850720     89.701440
     -4.219219     40.665559     40.665559     81.331118
     -4.209209     35.479773     35.479773     70.959547
     -4.199199     30.241996     30.241996     60.483991
     -4.189189     25.880680     25.880680     51.761361
     -4.179179     23.021284     23.021284     46.042568
     -4.169169     21.836473     21.836473     43.672946
     -4.159159     22.080638     22.080638     44.161275
     -4.149149     23.275153     23.275153     46.550306
     -4.139139     24.948464     24.948464     49.896928
     -4.129129     26.818484     26.818484     53.636969
     -4.119119     28.836138     28.836138     57.672276
     -4.109109     31.075268     31.075268     62.150537
     -4.099099     33.531844     33.531844     67.063687
     -4.089089     35.950673     35.950673     71.901346
     -4.079079     37.796416     37.796416     75.592832
     -4.069069     38.414983     38.414983     76.829966
     -4.059059     37.321657     37.321657     74.643315
     -4.049049     34.468530     34.468530     68.937060
     -4.039039     30.344361     30.344361     60.688722
     -4.029029     25.849467     25.849467     51.698933
     -4.019019     22.009664     22.009664     44.019328
     -4.009009     19.669516     19.669516     39.339032
     -3.998999     19.295126     19.295126     38.590252
     -3.988989     20.939974     20.939974     41.879949
     -3.978979     24.340804     24.340804     48.681608
     -3.968969     29.064836     29.064836     58.129673
     -3.958959     34.638676     34.638676     69.277352
     -3.948949     40.630461     40.630461     81.260921
     -3.938939     46.693157     46.693157     93.386313
     -3.928929     52.584457     52.584457    105.168915
     -3.918919     58.162326     58.162326    116.324653
     -3.908909     63.341248     63.341248    126.682496
     -3.898899     68.005767     68.005767    136.011534
     -3.888889     71.911880     71.911880    143.823761
     -3.878879     74.635055     74.635055    149.270109
     -3.868869     75.617188     75.617188    151.234375
     -3.858859     74.319864     74.319864    148.639729
     -3.848849     70.433180     70.433180    140.866360
     -3.838839     64.053499     64.053499    128.106997
     -3.828829     55.750289     55.750289    111.500579
     -3.818819     46.486351     46.486351     92.972703
     -3.808809     37.413292     37.413292     74.826584
     -3.798799     29.608477     29.608477     59.216954
     -3.788789     23.834991     23.834991     47.669983
     -3.778779     20.391910     20.391910     40.783820
     -3.768769     19.089260     19.089260     38.178520
     -3.758759     19.344899     19.344899     38.689798
     -3.748749     20.370438     20.370438     40.740876
     -3.738739     21.395671     21.395671     42.791341
     -3.728729     21.876078     21.876078     43.752157
     -3.718719     21.633753     21.633753     43.267505
     -3.708709     20.896164     20.896164     41.792328
     -3.698699     20.218270     20.218270     40.436539
     -3.688689     20.300713     20.300713     40.601426
     -3.678679     21.747813     21.747813     43.495627
     -3.668669     24.835941     24.835941     49.671882
     -3.658659     29.372616     29.372616     58.745231
     -3.648649     34.706263     34.706263     69.412526
     -3.638639     39.894554     39.894554     79.789108
     -3.628629     43.973996     43.973996     87.947992
     -3.618619     46.228487     46.228487     92.456975
     -3.608609     46.357967     46.357967     92.715933
     -3.598599     44.500022     44.500022     89.000044
     -3.588589     41.125224     41.125224     82.250449
     -3.578579     36.869892     36.869892     73.739784
     -3.568569     32.369766     32.369766     64.739533
     -3.558559     28.130765     28.130765     56.261531
     -3.548549     24.449042     24.449042     48.898085
     -3.538539     21.386767     21.386767     42.773535
     -3.528529     18.810855     18.810855     37.621709
     -3.518519     16.490327     16.490327     32.980655
     -3.508509     14.222430     14.222430     28.444860
     -3.498498     11.937696     11.937696     23.875393
     -3.488488      9.740514      9.740514     19.481029
     -3.478478      7.873771      7.873771     15.747542
     -3.468468      6.631876      6.631876     13.263752
     -3.458458      6.262937      6.262937     12.525874
     -3.448448      6.893373      6.893373     13.786746
     -3.438438      8.490251      8.490251     16.980502
     -3.428428     10.863413     10.863413     21.726825
     -3.418418     13.704455     13.704455     27.408910
     -3.408408     16.656166     16.656166     33.312333
     -3.398398     19.398643     19.398643     38.797286
     -3.388388     21.730160     21.730160     43.460319
     -3.378378     23.619092     23.619092     47.238183
     -3.368368     25.210206     25.210206     50.420411
     -3.358358     26.779788     26.779788     53.559576
     -3.348348     28.644171     28.644171     57.288341
     -3.338338     31.035759     31.035759     62.071517
     -3.328328     33.974106     33.974106     67.948212
     -3.318318     37.176224     37.176224     74.352447
     -3.308308     40.058349     40.058349     80.116698
     -3.298298     41.863436     41.863436     83.726873
     -3.288288     41.898164     41.898164     83.796327
     -3.278278     39.799446     39.799446     79.598893
     -3.268268     35.713666     35.713666     71.427331
     -3.258258     30.295710     30.295710     60.591419
     -3.248248     24.515453     24.515453     49.030907
     -3.238238     19.351025     19.351025     38.702050
     -3.228228     15.496619     15.496619     30.993238
     -3.218218     13.194549     13.194549     26.389098
     -3.208208     12.237148     12.237148     24.474296
     -3.198198     12.114912     12.114912     24.229824
     -3.188188     12.242545     12.242545     24.485089
     -3.178178     12.181315     12.181315     24.362631
     -3.168168     11.788078     11.788078     23.576157
     -3.158158     11.250388     11.250388     22.500775
     -3.148148     11.004827     11.004827     22.009653
     -3.138138     11.570729     11.570729     23.141458
     -3.128128     13.353265     13.353265     26.706531
     -3.118118     16.474910     16.474910     32.949819
     -3.108108     20.686333     20.686333     41.372666
     -3.098098     25.390144     25.390144     50.780289
     -3.088088     29.781968     29.781968     59.563937
     -3.078078     33.072892     33.072892     66.145784
     -3.068068     34.717554     34.717554     69.435109
     -3.058058     34.557644     34.557644     69.115289
     -3.048048     32.820758     32.820758     65.641517
     -3.038038     29.982466     29.982466     59.964932
     -3.028028     26.568098     26.568098     53.136195
     -3.018018     22.996480     22.996480     45.992960
     -3.008008     19.533319     19.533319     39.066637
     -2.997998     16.351194     16.351194     32.702388
     -2.987988     13.633694     13.633694     27.267387
     -2.977978     11.647758     11.647758     23.295515
     -2.967968     10.739532     10.739532     21.479063
     -2.957958     11.255699     11.255699     22.511398
     -2.947948     13.424916     13.424916     26.849832
     -2.937938     17.243589     17.243589     34.487178
     -2.927928     22.405415     22.405415     44.810829
     -2.917918     28.304533     28.304533     56.609065
     -2.907908     34.127710     34.127710     68.255420
     -2.897898     39.026347     39.026347     78.052694
     -2.887888     42.325878     42.325878     84.651757
     -2.877878     43.702603     43.702603     87.405205
     -2.867868     43.255912     43.255912     86.511824
     -2.857858     41.438011     41.438011     82.876021
     -2.847848     38.863737     38.863737     77.727474
     -2.837838     36.080930     36.080930     72.161860
     -2.827828     33.403431     33.403431     66.806862
     -2.817818     30.877825     30.877825     61.755651
     -2.807808     28.385232     28.385232     56.770464
     -2.797798     25.809282     25.809282     51.618565
     -2.787788     23.171223     23.171223     46.342446
     -2.777778     20.659735     20.659735     41.319469
     -2.767768     18.549611     18.549611     37.099222
     -2.757758     17.069454     17.069454     34.138909
     -2.747748     16.304564     16.304564     32.609127
     -2.737738     16.192298     16.192298     32.384597
     -2.727728     16.602327     16.602327     33.204654
     -2.717718     17.435958     17.435958     34.871916
     -2.707708     18.667284     18.667284     37.334569
     -2.697698     20.294167     20.294167     40.588334
     -2.687688     22.238939     22.238939     44.477878
     -2.677678     24.284530     24.284530     48.569060
     -2.667668     26.113895     26.113895     52.227790
     -2.657658     27.447383     27.447383     54.894766
     -2.647648     28.195868     28.195868     56.391735
     -2.637638     28.525688     28.525688     57.051377
     -2.627628     28.784209     28.784209     57.568419
     -2.617618     29.325142     29.325142     58.650284
     -2.607608     30.334972     30.334972     60.669943
     -2.597598     31.752667     31.752667     63.505334
     -2.587588     33.306956     33.306956     66.613912
     -2.577578     34.624276     34.624276     69.248553
     -2.567568     35.337439     35.337439     70.674877
     -2.557558     35.156596     35.156596     70.313191
     -2.547548     33.911905     33.911905     67.823810
     -2.537538     31.595954     31.595954     63.191908
     -2.527528     28.411288     28.411288     56.822575
     -2.517518     24.791957     24.791957     49.583915
     -2.507508     21.356467     21.356467     42.712933
     -2.497497     18.777142     18.777142     37.554283
     -2.487487     17.598607     17.598607     35.197214
     -2.477477     18.072833     18.072833     36.145666
     -2.467467     20.079406     20.079406     40.158813
     -2.457457     23.168481     23.168481     46.336962
     -2.447447     26.715772     26.715772     53.431544
     -2.437437     30.133192     30.133192     60.266383
     -2.427427     33.052393     33.052393     66.104787
     -2.417417     35.403906     35.403906     70.807812
     -2.407407     37.354319     37.354319     74.708638
     -2.397397     39.126234     39.126234     78.252468
     -2.387387     40.785171     40.785171     81.570341
     -2.377377     42.104180     42.104180     84.208360
     -2.367367     42.589807     42.589807     85.179614
     -2.357357     41.676208     41.676208     83.352415
     -2.347347     39.002939     39.002939     78.005878
     -2.337337     34.639275     34.639275     69.278549
     -2.327327     29.140769     29.140769     58.281537
     -2.317317     23.411903     23.411903     46.823806
     -2.307307     18.446808     18.446808     36.893616
     -2.297297     15.067759     15.067759     30.135519
     -2.287287     13.757638     13.757638     27.515275
     -2.277277     14.616702     14.616702     29.233403
     -2.267267     17.414785     17.414785     34.829569
     -2.257257     21.687288     21.687288     43.374576
     -2.247247     26.833988     26.833988     53.667977
     -2.237237     32.202183     32.202183     64.404367
     -2.227227     37.152454     37.152454     74.304909
     -2.217217     41.112331     41.112331     82.224662
     -2.207207     43.624629     43.624629     87.249258
     -2.197197     44.396190     44.396190     88.792379
     -2.187187     43.347134     43.347134     86.694269
     -2.177177     40.648348     40.648348     81.296695
     -2.167167     36.721018     36.721018     73.442036
     -2.157157     32.170833     32.170833     64.341666
     -2.147147     27.652735     27.652735     55.305471
     -2.137137     23.703739     23.703739     47.407479
     -2.127127     20.613673     20.613673     41.227347
     -2.117117     18.396678     18.396678     36.793356
     -2.107107     16.874996     16.874996     33.749993
     -2.097097     15.821627     15.821627     31.643253
     -2.087087     15.075550     15.075550     30.151100
     -2.077077     14.567594     14.567594     29.135188
     -2.067067     14.259847     14.259847     28.519693
     -2.057057     14.060401     14.060401     28.120801
     -2.047047     13.786995     13.786995     27.573989
     -2.037037     13.212390     13.212390     26.424781
     -2.027027     12.163589     12.163589     24.327178
     -2.017017     10.610365     10.610365     21.220730
     -2.007007      8.688947      8.688947     17.377895
     -1.996997      6.651481      6.651481     13.302963
     -1.986987      4.776564      4.776564      9.553127
     -1.976977      3.291813      3.291813      6.583625
     -1.966967      2.341687      2.341687      4.683374
     -1.956957      2.000496      2.000496      4.000993
     -1.946947      2.304840      2.304840      4.609681
     -1.936937      3.274497      3.274497      6.548995
     -1.926927      4.904557      4.904557      9.809114
     -1.916917      7.133607      7.133607     14.267215
     -1.906907      9.810270      9.810270     19.620539
     -1.896897     12.684132     12.684132     25.368263
     -1.886887     15.435449     15.435449     30.870898
     -1.876877     17.738194     17.738194     35.476389
     -1.866867     19.335139     19.335139     38.670277
     -1.856857     20.099762     20.099762     40.199524
     -1.846847     20.066125     20.066125     40.132251
     -1.836837     19.416814     19.416814     38.833629
     -1.826827     18.427157     18.427157     36.854315
     -1.816817     17.375096     17.375096     34.750192
     -1.806807     16.443201     16.443201     32.886402
     -1.796797     15.653764     15.653764     31.307527
     -1.786787     14.873176     14.873176     29.746351
     -1.776777     13.890874     13.890874     27.781749
     -1.766767     12.536238     12.536238     25.072475
     -1.756757     10.773194     10.773194     21.546387
     -1.746747      8.725837      8.725837     17.451673
     -1.736737      6.630302      6.630302     13.260604
     -1.726727      4.748949      4.748949      9.497899
     -1.716717      3.296108      3.296108      6.592215
     -1.706707      2.406040      2.406040      4.812081
     -1.696697      2.140948      2.140948      4.281897
     -1.686687      2.512756      2.512756      5.025512
     -1.676677      3.490284      3.490284      6.980568
     -1.666667      4.981169      4.981169      9.962338
     -1.656657      6.802975      6.802975     13.605951
     -1.646647      8.674544      8.674544     17.349088
     -1.636637     10.255195     10.255195     20.510389
     -1.626627     11.235182     11.235182     22.470365
