# EIG2DOS: Utility for SIESTA to obtain the electronic density of states
#  E. Artacho, Apr 1999, A. Garcia, Apr 2012
#  Nick R. Papior, Feb 2017
# ------------------------------------------
# Eigenvalues calculated from a non-polarized calculation
# Eigenvalues read from siesta.EIG
# Kpoint weights read from siesta.KP
# Using smearing parameter:   0.0500
# Using 1000 points in the energy range
# Selected bands: 1 to: 2981
# Emin, Emax in file for selected band(s):    -27.0370401    218.3027850
# Nbands, Nspin, Nk   =   2981     1     1
# E_F                 =    -4.3124 eV --> (shifted to ZERO)
# Broadening          =     0.0500 eV
#
#        E            N(up)  (=)   N(down)         Ntot
     -5.000000     44.012262     44.012262     88.024525
     -4.989990     48.355432     48.355432     96.710865
     -4.979980     51.252635     51.252635    102.505271
     -4.969970     52.336736     52.336736    104.673471
     -4.959960     51.527486     51.527486    103.054973
     -4.949950     49.047205     49.047205     98.094410
     -4.939940     45.360263     45.360263     90.720526
     -4.929930     41.076544     41.076544     82.153088
     -4.919920     36.866689     36.866689     73.733378
     -4.909910     33.411342     33.411342     66.822685
     -4.899900     31.365465     31.365465     62.730929
     -4.889890     31.290935     31.290935     62.581869
     -4.879880     33.521612     33.521612     67.043224
     -4.869870     37.979598     37.979598     75.959197
     -4.859860     44.031126     44.031126     88.062251
     -4.849850     50.501950     50.501950    101.003900
     -4.839840     55.922967     55.922967    111.845934
     -4.829830     58.956646     58.956646    117.913293
     -4.819820     58.834212     58.834212    117.668424
     -4.809810     55.599404     55.599404    111.198807
     -4.799800     50.043171     50.043171    100.086343
     -4.789790     43.373807     43.373807     86.747613
     -4.779780     36.794909     36.794909     73.589818
     -4.769770     31.180914     31.180914     62.361828
     -4.759760     26.951267     26.951267     53.902535
     -4.749750     24.124559     24.124559     48.249117
     -4.739740     22.461831     22.461831     44.923662
     -4.729730     21.609517     21.609517     43.219034
     -4.719720     21.197149     21.197149     42.394298
     -4.709710     20.888723     20.888723     41.777446
     -4.699700     20.407441     20.407441     40.814882
     -4.689690     19.555165     19.555165     39.110329
     -4.679680     18.240431     18.240431     36.480863
     -4.669670     16.516601     16.516601     33.033203
     -4.659660     14.617040     14.617040     29.234080
     -4.649650     12.963810     12.963810     25.927620
     -4.639640     12.127208     12.127208     24.254416
     -4.629630     12.725649     12.725649     25.451298
     -4.619620     15.272927     15.272927     30.545855
     -4.609610     19.999135     19.999135     39.998270
     -4.599600     26.692713     26.692713     53.385427
     -4.589590     34.629547     34.629547     69.259095
     -4.579580     42.653417     42.653417     85.306834
     -4.569570     49.431565     49.431565     98.863129
     -4.559560     53.831983     53.831983    107.663965
     -4.549550     55.291501     55.291501    110.583002
     -4.539540     54.017805     54.017805    108.035610
     -4.529530     50.923411     50.923411    101.846823
     -4.519520     47.304956     47.304956     94.609912
     -4.509510     44.395877     44.395877     88.791754
     -4.499499     42.972649     42.972649     85.945297
     -4.489489     43.159971     43.159971     86.319941
     -4.479479     44.483940     44.483940     88.967880
     -4.469469     46.118218     46.118218     92.236437
     -4.459459     47.205255     47.205255     94.410511
     -4.449449     47.131555     47.131555     94.263111
     -4.439439     45.679121     45.679121     91.358242
     -4.429429     43.034347     43.034347     86.068694
     -4.419419     39.683580     39.683580     79.367159
     -4.409409     36.248559     36.248559     72.497118
     -4.399399     33.316309     33.316309     66.632617
     -4.389389     31.305297     31.305297     62.610594
     -4.379379     30.391735     30.391735     60.783471
     -4.369369     30.502436     30.502436     61.004873
     -4.359359     31.366242     31.366242     62.732485
     -4.349349     32.605654     32.605654     65.211307
     -4.339339     33.844428     33.844428     67.688856
     -4.329329     34.805608     34.805608     69.611215
     -4.319319     35.377493     35.377493     70.754985
     -4.309309     35.632682     35.632682     71.265365
     -4.299299     35.796692     35.796692     71.593383
     -4.289289     36.174530     36.174530     72.349060
     -4.279279     37.051327     37.051327     74.102653
     -4.269269     38.585835     38.585835     77.171670
     -4.259259     40.718831     40.718831     81.437662
     -4.249249     43.126589     43.126589     86.253179
     -4.239239     45.255515     45.255515     90.511030
     -4.229229     46.459354     46.459354     92.918709
     -4.219219     46.215006     46.215006     92.430012
     -4.209209     44.335565     44.335565     88.671131
     -4.199199     41.073544     41.073544     82.147088
     -4.189189     37.046784     37.046784     74.093567
     -4.179179     33.011542     33.011542     66.023083
     -4.169169     29.593607     29.593607     59.187213
     -4.159159     27.109543     27.109543     54.219086
     -4.149149     25.553426     25.553426     51.106853
     -4.139139     24.730641     24.730641     49.461283
     -4.129129     24.448190     24.448190     48.896380
     -4.119119     24.654245     24.654245     49.308490
     -4.109109     25.455028     25.455028     50.910056
     -4.099099     27.001053     27.001053     54.002106
     -4.089089     29.301868     29.301868     58.603737
     -4.079079     32.073776     32.073776     64.147552
     -4.069069     34.723466     34.723466     69.446931
     -4.059059     36.509647     36.509647     73.019294
     -4.049049     36.825994     36.825994     73.651988
     -4.039039     35.468305     35.468305     70.936610
     -4.029029     32.744134     32.744134     65.488267
     -4.019019     29.366262     29.366262     58.732524
     -4.009009     26.191875     26.191875     52.383751
     -3.998999     23.947808     23.947808     47.895616
     -3.988989     23.069440     23.069440     46.138880
     -3.978979     23.693603     23.693603     47.387205
     -3.968969     25.751134     25.751134     51.502269
     -3.958959     29.066756     29.066756     58.133513
     -3.948949     33.407554     33.407554     66.815108
     -3.938939     38.487202     38.487202     76.974404
     -3.928929     43.973897     43.973897     87.947794
     -3.918919     49.536681     49.536681     99.073361
     -3.908909     54.915517     54.915517    109.831034
     -3.898899     59.960960     59.960960    119.921921
     -3.888889     64.594899     64.594899    129.189797
     -3.878879     68.694039     68.694039    137.388079
     -3.868869     71.959082     71.959082    143.918163
     -3.858859     73.862562     73.862562    147.725124
     -3.848849     73.742237     73.742237    147.484474
     -3.838839     71.032414     71.032414    142.064827
     -3.828829     65.541830     65.541830    131.083659
     -3.818819     57.643893     57.643893    115.287786
     -3.808809     48.274141     48.274141     96.548281
     -3.798799     38.718376     38.718376     77.436752
     -3.788789     30.272607     30.272607     60.545213
     -3.778779     23.907634     23.907634     47.815267
     -3.768769     20.054767     20.054767     40.109533
     -3.758759     18.565647     18.565647     37.131295
     -3.748749     18.830737     18.830737     37.661473
     -3.738739     19.998872     19.998872     39.997744
     -3.728729     21.229592     21.229592     42.459184
     -3.718719     21.917916     21.917916     43.835832
     -3.708709     21.844464     21.844464     43.688928
     -3.698699     21.217892     21.217892     42.435784
     -3.688689     20.594992     20.594992     41.189983
     -3.678679     20.690565     20.690565     41.381131
     -3.668669     22.122919     22.122919     44.245838
     -3.658659     25.171609     25.171609     50.343219
     -3.648649     29.635018     29.635018     59.270036
     -3.638639     34.850931     34.850931     69.701862
     -3.628629     39.882910     39.882910     79.765820
     -3.618619     43.802623     43.802623     87.605246
     -3.608609     45.953760     45.953760     91.907521
     -3.598599     46.096868     46.096868     92.193737
     -3.588589     44.399854     44.399854     88.799708
     -3.578579     41.313134     41.313134     82.626268
     -3.568569     37.404814     37.404814     74.809629
     -3.558559     33.217100     33.217100     66.434200
     -3.548549     29.167627     29.167627     58.335254
     -3.538539     25.495405     25.495405     50.990810
     -3.528529     22.251539     22.251539     44.503079
     -3.518519     19.340841     19.340841     38.681683
     -3.508509     16.609920     16.609920     33.219839
     -3.498498     13.952343     13.952343     27.904686
     -3.488488     11.385225     11.385225     22.770450
     -3.478478      9.062633      9.062633     18.125266
     -3.468468      7.223643      7.223643     14.447285
     -3.458458      6.102937      6.102937     12.205874
     -3.448448      5.841465      5.841465     11.682929
     -3.438438      6.425592      6.425592     12.851184
     -3.428428      7.669978      7.669978     15.339955
     -3.418418      9.251147      9.251147     18.502294
     -3.408408     10.791236     10.791236     21.582473
     -3.398398     11.975991     11.975991     23.951981
     -3.388388     12.669907     12.669907     25.339814
     -3.378378     12.980110     12.980110     25.960220
     -3.368368     13.234597     13.234597     26.469194
     -3.358358     13.877979     13.877979     27.755959
     -3.348348     15.326320     15.326320     30.652640
     -3.338338     17.836098     17.836098     35.672196
     -3.328328     21.423387     21.423387     42.846773
     -3.318318     25.837025     25.837025     51.674050
     -3.308308     30.572850     30.572850     61.145701
     -3.298298     34.926519     34.926519     69.853037
     -3.288288     38.101022     38.101022     76.202044
     -3.278278     39.379236     39.379236     78.758473
     -3.268268     38.330499     38.330499     76.660998
     -3.258258     34.971965     34.971965     69.943930
     -3.248248     29.797691     29.797691     59.595381
     -3.238238     23.642116     23.642116     47.284232
     -3.228228     17.429923     17.429923     34.859846
     -3.218218     11.922271     11.922271     23.844542
     -3.208208      7.561757      7.561757     15.123514
     -3.198198      4.456524      4.456524      8.913048
     -3.188188      2.474123      2.474123      4.948246
     -3.178178      1.379457      1.379457      2.758914
     -3.168168      0.957404      0.957404      1.914808
     -3.158158      1.089920      1.089920      2.179839
     -3.148148      1.783837      1.783837      3.567674
     -3.138138      3.156479      3.156479      6.312958
     -3.128128      5.385375      5.385375     10.770751
     -3.118118      8.627745      8.627745     17.255491
     -3.108108     12.923666     12.923666     25.847331
     -3.098098     18.112239     18.112239     36.224478
     -3.088088     23.800435     23.800435     47.600871
     -3.078078     29.414845     29.414845     58.829689
     -3.068068     34.332534     34.332534     68.665069
     -3.058058     38.042789     38.042789     76.085579
     -3.048048     40.265899     40.265899     80.531797
     -3.038038     40.972929     40.972929     81.945859
     -3.028028     40.308364     40.308364     80.616729
     -3.018018     38.479143     38.479143     76.958286
     -3.008008     35.692793     35.692793     71.385586
     -2.997998     32.185884     32.185884     64.371768
     -2.987988     28.310798     28.310798     56.621597
     -2.977978     24.598819     24.598819     49.197639
     -2.967968     21.727226     21.727226     43.454451
     -2.957958     20.377491     20.377491     40.754981
     -2.947948     21.036824     21.036824     42.073647
     -2.937938     23.825848     23.825848     47.651696
     -2.927928     28.421444     28.421444     56.842887
     -2.917918     34.103337     34.103337     68.206674
     -2.907908     39.910118     39.910118     79.820237
     -2.897898     44.859648     44.859648     89.719297
     -2.887888     48.173909     48.173909     96.347817
     -2.877878     49.448295     49.448295     98.896591
     -2.867868     48.719135     48.719135     97.438269
     -2.857858     46.409737     46.409737     92.819475
     -2.847848     43.170782     43.170782     86.341564
     -2.837838     39.666337     39.666337     79.332675
     -2.827828     36.379152     36.379152     72.758303
     -2.817818     33.505094     33.505094     67.010188
     -2.807808     30.972716     30.972716     61.945432
     -2.797798     28.570535     28.570535     57.141071
     -2.787788     26.115837     26.115837     52.231673
     -2.777778     23.580352     23.580352     47.160704
     -2.767768     21.112700     21.112700     42.225400
     -2.757758     18.954409     18.954409     37.908818
     -2.747748     17.305643     17.305643     34.611287
     -2.737738     16.224303     16.224303     32.448605
     -2.727728     15.620217     15.620217     31.240434
     -2.717718     15.345938     15.345938     30.691876
     -2.707708     15.323022     15.323022     30.646045
     -2.697698     15.617523     15.617523     31.235046
     -2.687688     16.408698     16.408698     32.817397
     -2.677678     17.863556     17.863556     35.727112
     -2.667668     19.993770     19.993770     39.987539
     -2.657658     22.588427     22.588427     45.176853
     -2.647648     25.272381     25.272381     50.544762
     -2.637638     27.661496     27.661496     55.322993
     -2.627628     29.523598     29.523598     59.047195
     -2.617618     30.850528     30.850528     61.701055
     -2.607608     31.806038     31.806038     63.612077
     -2.597598     32.594684     32.594684     65.189369
     -2.587588     33.340237     33.340237     66.680474
     -2.577578     34.039063     34.039063     68.078127
     -2.567568     34.588664     34.588664     69.177329
     -2.557558     34.841316     34.841316     69.682632
     -2.547548     34.637145     34.637145     69.274290
     -2.537538     33.817138     33.817138     67.634275
     -2.527528     32.253334     32.253334     64.506668
     -2.517518     29.921516     29.921516     59.843033
     -2.507508     26.991040     26.991040     53.982081
     -2.497497     23.865773     23.865773     47.731545
     -2.487487     21.120457     21.120457     42.240913
     -2.477477     19.335389     19.335389     38.670777
     -2.467467     18.897444     18.897444     37.794889
     -2.457457     19.862786     19.862786     39.725572
     -2.447447     21.950108     21.950108     43.900217
     -2.437437     24.670150     24.670150     49.340301
     -2.427427     27.531382     27.531382     55.062763
     -2.417417     30.224834     30.224834     60.449668
     -2.407407     32.700115     32.700115     65.400230
     -2.397397     35.096452     35.096452     70.192904
     -2.387387     37.564053     37.564053     75.128106
     -2.377377     40.067979     40.067979     80.135959
     -2.367367     42.280281     42.280281     84.560563
     -2.357357     43.627681     43.627681     87.255363
     -2.347347     43.488182     43.488182     86.976364
     -2.337337     41.455460     41.455460     82.910919
     -2.327327     37.552245     37.552245     75.104491
     -2.317317     32.294159     32.294159     64.588318
     -2.307307     26.574524     26.574524     53.149049
     -2.297297     21.421310     21.421310     42.842619
     -2.287287     17.726218     17.726218     35.452436
     -2.277277     16.041843     16.041843     32.083686
     -2.267267     16.498490     16.498490     32.996979
     -2.257257     18.839822     18.839822     37.679644
     -2.247247     22.541267     22.541267     45.082533
     -2.237237     26.962002     26.962002     53.924004
     -2.227227     31.482811     31.482811     62.965623
     -2.217217     35.593031     35.593031     71.186061
     -2.207207     38.911769     38.911769     77.823538
     -2.197197     41.159865     41.159865     82.319731
     -2.187187     42.125791     42.125791     84.251583
     -2.177177     41.670371     41.670371     83.340742
     -2.167167     39.782990     39.782990     79.565980
     -2.157157     36.653054     36.653054     73.306107
     -2.147147     32.690934     32.690934     65.381868
     -2.137137     28.450827     28.450827     56.901655
     -2.127127     24.468215     24.468215     48.936430
     -2.117117     21.086596     21.086596     42.173193
     -2.107107     18.365458     18.365458     36.730915
     -2.097097     16.118354     16.118354     32.236708
     -2.087087     14.054915     14.054915     28.109830
     -2.077077     11.944500     11.944500     23.889000
     -2.067067      9.717210      9.717210     19.434420
     -2.057057      7.465154      7.465154     14.930307
     -2.047047      5.366624      5.366624     10.733249
     -2.037037      3.589810      3.589810      7.179620
     -2.027027      2.227089      2.227089      4.454178
     -2.017017      1.280019      1.280019      2.560038
     -2.007007      0.684287      0.684287      1.368573
     -1.996997      0.350113      0.350113      0.700226
     -1.986987      0.197712      0.197712      0.395425
     -1.976977      0.179479      0.179479      0.358958
     -1.966967      0.290356      0.290356      0.580711
     -1.956957      0.570549      0.570549      1.141099
     -1.946947      1.101686      1.101686      2.203372
     -1.936937      1.993036      1.993036      3.986072
     -1.926927      3.353386      3.353386      6.706773
     -1.916917      5.249190      5.249190     10.498380
     -1.906907      7.659308      7.659308     15.318617
     -1.896897     10.445010     10.445010     20.890019
     -1.886887     13.353515     13.353515     26.707031
     -1.876877     16.061717     16.061717     32.123434
     -1.866867     18.249367     18.249367     36.498734
     -1.856857     19.678424     19.678424     39.356847
     -1.846847     20.253617     20.253617     40.507234
     -1.836837     20.046141     20.046141     40.092282
     -1.826827     19.271371     19.271371     38.542742
     -1.816817     18.221133     18.221133     36.442266
     -1.806807     17.165171     17.165171     34.330342
     -1.796797     16.254682     16.254682     32.509363
     -1.786787     15.471231     15.471231     30.942463
     -1.776777     14.651765     14.651765     29.303531
     -1.766767     13.583590     13.583590     27.167180
     -1.756757     12.123135     12.123135     24.246270
     -1.746747     10.277852     10.277852     20.555704
     -1.736737      8.213975      8.213975     16.427951
     -1.726727      6.197951      6.197951     12.395901
     -1.716717      4.514422      4.514422      9.028844
     -1.706707      3.406624      3.406624      6.813248
     -1.696697      3.058274      3.058274      6.116549
     -1.686687      3.601329      3.601329      7.202658
     -1.676677      5.115162      5.115162     10.230325
     -1.666667      7.591295      7.591295     15.182589
     -1.656657     10.868520     10.868520     21.737040
     -1.646647     14.577731     14.577731     29.155462
     -1.636637     18.150651     18.150651     36.301301
     -1.626627     20.926453     20.926453     41.852906
