# EIG2DOS: Utility for SIESTA to obtain the electronic density of states
#  E. Artacho, Apr 1999, A. Garcia, Apr 2012
#  Nick R. Papior, Feb 2017
# ------------------------------------------
# Eigenvalues calculated from a non-polarized calculation
# Eigenvalues read from siesta.EIG
# Kpoint weights read from siesta.KP
# Using smearing parameter:   0.0500
# Using 1000 points in the energy range
# Selected bands: 1 to: 2981
# Emin, Emax in file for selected band(s):    -27.0585423    218.3157010
# Nbands, Nspin, Nk   =   2981     1     1
# E_F                 =    -4.2922 eV --> (shifted to ZERO)
# Broadening          =     0.0500 eV
#
#        E            N(up)  (=)   N(down)         Ntot
     -5.000000     46.298496     46.298496     92.596992
     -4.989990     48.614385     48.614385     97.228769
     -4.979980     49.486534     49.486534     98.973068
     -4.969970     48.963340     48.963340     97.926679
     -4.959960     47.229032     47.229032     94.458063
     -4.949950     44.550978     44.550978     89.101955
     -4.939940     41.247527     41.247527     82.495054
     -4.929930     37.686833     37.686833     75.373666
     -4.919920     34.306918     34.306918     68.613836
     -4.909910     31.631052     31.631052     63.262104
     -4.899900     30.243442     30.243442     60.486885
     -4.889890     30.693114     30.693114     61.386227
     -4.879880     33.319049     33.319049     66.638098
     -4.869870     38.040563     38.040563     76.081126
     -4.859860     44.211953     44.211953     88.423905
     -4.849850     50.655352     50.655352    101.310704
     -4.839840     55.925881     55.925881    111.851762
     -4.829830     58.743346     58.743346    117.486693
     -4.819820     58.414638     58.414638    116.829277
     -4.809810     55.050613     55.050613    110.101227
     -4.799800     49.477288     49.477288     98.954577
     -4.789790     42.897961     42.897961     85.795923
     -4.779780     36.480082     36.480082     72.960164
     -4.769770     31.048606     31.048606     62.097212
     -4.759760     26.976920     26.976920     53.953840
     -4.749750     24.251255     24.251255     48.502509
     -4.739740     22.618044     22.618044     45.236088
     -4.729730     21.726999     21.726999     43.453998
     -4.719720     21.226098     21.226098     42.452196
     -4.709710     20.807201     20.807201     41.614401
     -4.699700     20.222915     20.222915     40.445830
     -4.689690     19.299070     19.299070     38.598139
     -4.679680     17.959962     17.959962     35.919924
     -4.669670     16.268670     16.268670     32.537340
     -4.659660     14.466410     14.466410     28.932820
     -4.649650     12.982670     12.982670     25.965341
     -4.639640     12.390082     12.390082     24.780165
     -4.629630     13.294012     13.294012     26.588023
     -4.619620     16.169020     16.169020     32.338039
     -4.609610     21.176756     21.176756     42.353512
     -4.599600     28.020350     28.020350     56.040700
     -4.589590     35.902324     35.902324     71.804648
     -4.579580     43.640908     43.640908     87.281816
     -4.569570     49.950423     49.950423     99.900845
     -4.559560     53.815156     53.815156    107.630311
     -4.549550     54.821454     54.821454    109.642908
     -4.539540     53.304964     53.304964    106.609927
     -4.529530     50.236590     50.236590    100.473180
     -4.519520     46.883343     46.883343     93.766686
     -4.509510     44.379905     44.379905     88.759811
     -4.499499     43.381294     43.381294     86.762588
     -4.489489     43.921580     43.921580     87.843160
     -4.479479     45.506365     45.506365     91.012730
     -4.469469     47.368363     47.368363     94.736727
     -4.459459     48.761146     48.761146     97.522292
     -4.449449     49.174072     49.174072     98.348143
     -4.439439     48.409050     48.409050     96.818100
     -4.429429     46.533510     46.533510     93.067020
     -4.419419     43.776453     43.776453     87.552906
     -4.409409     40.441351     40.441351     80.882702
     -4.399399     36.871767     36.871767     73.743534
     -4.389389     33.450801     33.450801     66.901601
     -4.379379     30.583556     30.583556     61.167112
     -4.369369     28.627149     28.627149     57.254297
     -4.359359     27.783709     27.783709     55.567417
     -4.349349     28.017288     28.017288     56.034577
     -4.339339     29.057013     29.057013     58.114027
     -4.329329     30.502051     30.502051     61.004103
     -4.319319     31.982577     31.982577     63.965154
     -4.309309     33.298330     33.298330     66.596660
     -4.299299     34.471716     34.471716     68.943432
     -4.289289     35.699000     35.699000     71.398001
     -4.279279     37.227554     37.227554     74.455109
     -4.269269     39.208232     39.208232     78.416464
     -4.259259     41.573035     41.573035     83.146070
     -4.249249     43.982701     43.982701     87.965402
     -4.239239     45.878666     45.878666     91.757332
     -4.229229     46.646331     46.646331     93.292662
     -4.219219     45.845755     45.845755     91.691511
     -4.209209     43.413981     43.413981     86.827962
     -4.199199     39.732533     39.732533     79.465067
     -4.189189     35.509383     35.509383     71.018766
     -4.179179     31.522858     31.522858     63.045716
     -4.169169     28.352909     28.352909     56.705818
     -4.159159     26.229541     26.229541     52.459083
     -4.149149     25.057778     25.057778     50.115555
     -4.139139     24.581921     24.581921     49.163842
     -4.129129     24.586793     24.586793     49.173586
     -4.119119     25.027549     25.027549     50.055099
     -4.109109     26.024010     26.024010     52.048020
     -4.099099     27.724356     27.724356     55.448713
     -4.089089     30.110140     30.110140     60.220280
     -4.079079     32.854065     32.854065     65.708130
     -4.069069     35.329703     35.329703     70.659406
     -4.059059     36.800857     36.800857     73.601714
     -4.049049     36.716376     36.716376     73.432751
     -4.039039     34.963960     34.963960     69.927921
     -4.029029     31.947013     31.947013     63.894026
     -4.019019     28.443529     28.443529     56.887058
     -4.009009     25.326616     25.326616     50.653232
     -3.998999     23.293565     23.293565     46.587131
     -3.988989     22.724111     22.724111     45.448222
     -3.978979     23.694867     23.694867     47.389735
     -3.968969     26.085819     26.085819     52.171638
     -3.958959     29.685254     29.685254     59.370507
     -3.948949     34.239098     34.239098     68.478196
     -3.938939     39.456035     39.456035     78.912071
     -3.928929     45.015861     45.015861     90.031722
     -3.918919     50.611525     50.611525    101.223050
     -3.908909     56.007295     56.007295    112.014589
     -3.898899     61.061834     61.061834    122.123667
     -3.888889     65.676718     65.676718    131.353437
     -3.878879     69.682002     69.682002    139.364005
     -3.868869     72.725381     72.725381    145.450763
     -3.858859     74.250803     74.250803    148.501606
     -3.848849     73.617835     73.617835    147.235670
     -3.838839     70.338694     70.338694    140.677388
     -3.828829     64.335726     64.335726    128.671451
     -3.818819     56.093299     56.093299    112.186598
     -3.808809     46.616700     46.616700     93.233399
     -3.798799     37.198532     37.198532     74.397065
     -3.788789     29.081026     29.081026     58.162051
     -3.778779     23.142418     23.142418     46.284837
     -3.768769     19.712292     19.712292     39.424585
     -3.758759     18.557717     18.557717     37.115435
     -3.748749     19.018704     19.018704     38.037408
     -3.738739     20.234335     20.234335     40.468671
     -3.728729     21.392658     21.392658     42.785317
     -3.718719     21.945674     21.945674     43.891348
     -3.708709     21.743904     21.743904     43.487808
     -3.698699     21.059854     21.059854     42.119709
     -3.688689     20.489597     20.489597     40.979194
     -3.678679     20.749704     20.749704     41.499407
     -3.668669     22.420433     22.420433     44.840867
     -3.658659     25.714386     25.714386     51.428773
     -3.648649     30.356021     30.356021     60.712041
     -3.638639     35.627548     35.627548     71.255097
     -3.628629     40.573495     40.573495     81.146991
     -3.618619     44.286179     44.286179     88.572358
     -3.608609     46.157422     46.157422     92.314844
     -3.598599     46.003617     46.003617     92.007235
     -3.588589     44.039476     44.039476     88.078952
     -3.578579     40.745728     40.745728     81.491457
     -3.568569     36.704969     36.704969     73.409938
     -3.558559     32.461311     32.461311     64.922622
     -3.548549     28.423652     28.423652     56.847305
     -3.538539     24.812922     24.812922     49.625845
     -3.528529     21.656488     21.656488     43.312975
     -3.518519     18.836732     18.836732     37.673464
     -3.508509     16.186458     16.186458     32.372915
     -3.498498     13.597351     13.597351     27.194702
     -3.488488     11.093933     11.093933     22.187866
     -3.478478      8.840353      8.840353     17.680707
     -3.468468      7.081785      7.081785     14.163570
     -3.458458      6.051323      6.051323     12.102645
     -3.448448      5.880566      5.880566     11.761133
     -3.438438      6.541539      6.541539     13.083078
     -3.428428      7.834203      7.834203     15.668406
     -3.418418      9.425745      9.425745     18.851490
     -3.408408     10.939632     10.939632     21.879263
     -3.398398     12.076145     12.076145     24.152290
     -3.388388     12.725180     12.725180     25.450360
     -3.378378     13.022877     13.022877     26.045753
     -3.368368     13.320512     13.320512     26.641023
     -3.358358     14.072697     14.072697     28.145394
     -3.348348     15.688816     15.688816     31.377632
     -3.338338     18.402117     18.402117     36.804234
     -3.328328     22.190567     22.190567     44.381134
     -3.318318     26.753048     26.753048     53.506095
     -3.308308     31.530883     31.530883     63.061766
     -3.298298     35.775294     35.775294     71.550588
     -3.288288     38.674868     38.674868     77.349735
     -3.278278     39.543938     39.543938     79.087875
     -3.268268     38.028787     38.028787     76.057573
     -3.258258     34.247188     34.247188     68.494375
     -3.248248     28.782104     28.782104     57.564209
     -3.238238     22.513802     22.513802     45.027605
     -3.228228     16.358210     16.358210     32.716421
     -3.218218     11.025381     11.025381     22.050762
     -3.208208      6.890965      6.890965     13.781929
     -3.198198      4.006213      4.006213      8.012426
     -3.188188      2.206507      2.206507      4.413013
     -3.178178      1.250988      1.250988      2.501975
     -3.168168      0.938904      0.938904      1.877809
     -3.158158      1.178935      1.178935      2.357870
     -3.148148      2.011634      2.011634      4.023268
     -3.138138      3.592506      3.592506      7.185013
     -3.128128      6.139923      6.139923     12.279847
     -3.118118      9.850398      9.850398     19.700795
     -3.108108     14.791862     14.791862     29.583724
     -3.098098     20.802050     20.802050     41.604101
     -3.088088     27.433138     27.433138     54.866276
     -3.078078     33.981692     33.981692     67.963385
     -3.068068     39.617419     39.617419     79.234839
     -3.058058     43.581996     43.581996     87.163992
     -3.048048     45.391056     45.391056     90.782111
     -3.038038     44.962061     44.962061     89.924123
     -3.028028     42.619014     42.619014     85.238029
     -3.018018     38.978828     38.978828     77.957656
     -3.008008     34.773322     34.773322     69.546644
     -2.997998     30.678216     30.678216     61.356432
     -2.987988     27.202059     27.202059     54.404118
     -2.977978     24.652387     24.652387     49.304774
     -2.967968     23.166156     23.166156     46.332312
     -2.957958     22.775102     22.775102     45.550205
     -2.947948     23.469818     23.469818     46.939635
     -2.937938     25.226753     25.226753     50.453506
     -2.927928     27.977364     27.977364     55.954728
     -2.917918     31.532451     31.532451     63.064902
     -2.907908     35.513249     35.513249     71.026498
     -2.897898     39.354509     39.354509     78.709018
     -2.887888     42.413863     42.413863     84.827725
     -2.877878     44.158506     44.158506     88.317013
     -2.867868     44.344713     44.344713     88.689427
     -2.857858     43.097051     43.097051     86.194102
     -2.847848     40.841246     40.841246     81.682491
     -2.837838     38.120176     38.120176     76.240351
     -2.827828     35.382294     35.382294     70.764589
     -2.817818     32.842828     32.842828     65.685655
     -2.807808     30.476262     30.476262     60.952524
     -2.797798     28.128452     28.128452     56.256903
     -2.787788     25.676284     25.676284     51.352568
     -2.777778     23.143560     23.143560     46.287119
     -2.767768     20.712533     20.712533     41.425065
     -2.757758     18.633472     18.633472     37.266944
     -2.747748     17.094134     17.094134     34.188269
     -2.737738     16.132883     16.132883     32.265767
     -2.727728     15.649796     15.649796     31.299593
     -2.717718     15.506302     15.506302     31.012604
     -2.707708     15.644896     15.644896     31.289792
     -2.697698     16.144758     16.144758     32.289517
     -2.687688     17.169162     17.169162     34.338324
     -2.677678     18.832723     18.832723     37.665447
     -2.667668     21.074065     21.074065     42.148130
     -2.657658     23.622546     23.622546     47.245092
     -2.647648     26.090869     26.090869     52.181738
     -2.637638     28.143780     28.143780     56.287559
     -2.627628     29.641533     29.641533     59.283066
     -2.617618     30.672316     30.672316     61.344631
     -2.607608     31.460996     31.460996     62.921992
     -2.597598     32.220360     32.220360     64.440720
     -2.587588     33.038520     33.038520     66.077039
     -2.577578     33.855947     33.855947     67.711893
     -2.567568     34.515135     34.515135     69.030270
     -2.557558     34.824576     34.824576     69.649151
     -2.547548     34.595695     34.595695     69.191391
     -2.537538     33.661464     33.661464     67.322927
     -2.527528     31.914890     31.914890     63.829781
     -2.517518     29.384352     29.384352     58.768704
     -2.507508     26.311320     26.311320     52.622640
     -2.497497     23.164974     23.164974     46.329947
     -2.487487     20.550090     20.550090     41.100180
     -2.477477     19.026706     19.026706     38.053412
     -2.467467     18.918150     18.918150     37.836299
     -2.457457     20.199271     20.199271     40.398543
     -2.447447     22.521076     22.521076     45.042152
     -2.437437     25.363047     25.363047     50.726094
     -2.427427     28.243695     28.243695     56.487390
     -2.417417     30.891724     30.891724     61.783449
     -2.407407     33.297753     33.297753     66.595506
     -2.397397     35.622828     35.622828     71.245657
     -2.387387     38.009889     38.009889     76.019778
     -2.377377     40.394526     40.394526     80.789052
     -2.367367     42.416749     42.416749     84.833498
     -2.357357     43.491223     43.491223     86.982445
     -2.347347     43.018404     43.018404     86.036808
     -2.337337     40.648036     40.648036     81.296071
     -2.327327     36.475641     36.475641     72.951282
     -2.317317     31.080553     31.080553     62.161107
     -2.307307     25.387767     25.387767     50.775534
     -2.297297     20.415282     20.415282     40.830564
     -2.287287     17.010445     17.010445     34.020889
     -2.277277     15.666103     15.666103     31.332206
     -2.267267     16.458096     16.458096     32.916192
     -2.257257     19.094074     19.094074     38.188147
     -2.247247     23.033523     23.033523     46.067047
     -2.237237     27.631704     27.631704     55.263408
     -2.227227     32.265829     32.265829     64.531658
     -2.217217     36.414109     36.414109     72.828218
     -2.207207     39.678228     39.678228     79.356457
     -2.197197     41.766194     41.766194     83.532387
     -2.187187     42.473195     42.473195     84.946390
     -2.177177     41.695987     41.695987     83.391974
     -2.167167     39.485405     39.485405     78.970809
     -2.157157     36.099406     36.099406     72.198811
     -2.147147     31.998193     31.998193     63.996385
     -2.137137     27.746712     27.746712     55.493424
     -2.127127     23.848513     23.848513     47.697027
     -2.117117     20.588374     20.588374     41.176748
     -2.107107     17.967619     17.967619     35.935238
     -2.097097     15.766665     15.766665     31.533330
     -2.087087     13.696477     13.696477     27.392953
     -2.077077     11.553818     11.553818     23.107636
     -2.067067      9.303220      9.303220     18.606440
     -2.057057      7.060330      7.060330     14.120660
     -2.047047      5.007988      5.007988     10.015977
     -2.037037      3.302997      3.302997      6.605994
     -2.027027      2.019749      2.019749      4.039498
     -2.017017      1.144292      1.144292      2.288583
     -2.007007      0.604041      0.604041      1.208082
     -1.996997      0.308344      0.308344      0.616689
     -1.986987      0.181523      0.181523      0.363046
     -1.976977      0.182372      0.182372      0.364744
     -1.966967      0.312714      0.312714      0.625427
     -1.956957      0.619094      0.619094      1.238187
     -1.946947      1.187977      1.187977      2.375954
     -1.936937      2.130524      2.130524      4.261048
     -1.926927      3.552713      3.552713      7.105426
     -1.916917      5.512433      5.512433     11.024867
     -1.906907      7.975155      7.975155     15.950310
     -1.896897     10.787361     10.787361     21.574723
     -1.886887     13.685142     13.685142     27.370285
     -1.876877     16.342438     16.342438     32.684875
     -1.866867     18.446134     18.446134     36.892268
     -1.856857     19.773904     19.773904     39.547807
     -1.846847     20.250551     20.250551     40.501101
     -1.836837     19.966178     19.966178     39.932356
     -1.826827     19.148398     19.148398     38.296797
     -1.816817     18.090463     18.090463     36.180926
     -1.806807     17.051768     17.051768     34.103536
     -1.796797     16.165327     16.165327     32.330655
     -1.786787     15.395554     15.395554     30.791108
     -1.776777     14.574304     14.574304     29.148609
     -1.766767     13.504720     13.504720     27.009441
     -1.756757     12.083416     12.083416     24.166833
     -1.746747     10.379811     10.379811     20.759621
     -1.736737      8.635945      8.635945     17.271890
     -1.726727      7.193133      7.193133     14.386267
     -1.716717      6.384165      6.384165     12.768331
     -1.706707      6.435119      6.435119     12.870238
     -1.696697      7.405060      7.405060     14.810121
     -1.686687      9.172248      9.172248     18.344497
     -1.676677     11.462813     11.462813     22.925626
     -1.666667     13.911018     13.911018     27.822037
     -1.656657     16.134153     16.134153     32.268306
     -1.646647     17.801321     17.801321     35.602641
     -1.636637     18.680082     18.680082     37.360164
     -1.626627     18.658644     18.658644     37.317288
