# EIG2DOS: Utility for SIESTA to obtain the electronic density of states
#  E. Artacho, Apr 1999, A. Garcia, Apr 2012
#  Nick R. Papior, Feb 2017
# ------------------------------------------
# Eigenvalues calculated from a non-polarized calculation
# Eigenvalues read from siesta.EIG
# Kpoint weights read from siesta.KP
# Using smearing parameter:   0.0500
# Using 1000 points in the energy range
# Selected bands: 1 to: 2981
# Emin, Emax in file for selected band(s):    -27.0326572    218.3040960
# Nbands, Nspin, Nk   =   2981     1     1
# E_F                 =    -4.3142 eV --> (shifted to ZERO)
# Broadening          =     0.0500 eV
#
#        E            N(up)  (=)   N(down)         Ntot
     -5.000000     43.450227     43.450227     86.900454
     -4.989990     47.964688     47.964688     95.929376
     -4.979980     51.093180     51.093180    102.186360
     -4.969970     52.427917     52.427917    104.855834
     -4.959960     51.842650     51.842650    103.685300
     -4.949950     49.522221     49.522221     99.044443
     -4.939940     45.910858     45.910858     91.821715
     -4.929930     41.616068     41.616068     83.232135
     -4.919920     37.317839     37.317839     74.635679
     -4.909910     33.710700     33.710700     67.421399
     -4.899900     31.465005     31.465005     62.930009
     -4.889890     31.162488     31.162488     62.324977
     -4.879880     33.167111     33.167111     66.334222
     -4.869870     37.443375     37.443375     74.886750
     -4.859860     43.404819     43.404819     86.809638
     -4.849850     49.912576     49.912576     99.825151
     -4.839840     55.502311     55.502311    111.004621
     -4.829830     58.801664     58.801664    117.603328
     -4.819820     58.975932     58.975932    117.951863
     -4.809810     55.995616     55.995616    111.991232
     -4.799800     50.598345     50.598345    101.196691
     -4.789790     43.975688     43.975688     87.951375
     -4.779780     37.350218     37.350218     74.700437
     -4.769770     31.636182     31.636182     63.272364
     -4.759760     27.295061     27.295061     54.590123
     -4.749750     24.376502     24.376502     48.753005
     -4.739740     22.656869     22.656869     45.313737
     -4.729730     21.783594     21.783594     43.567188
     -4.719720     21.376882     21.376882     42.753764
     -4.709710     21.085684     21.085684     42.171367
     -4.699700     20.617225     20.617225     41.234450
     -4.689690     19.760816     19.760816     39.521632
     -4.679680     18.418350     18.418350     36.836701
     -4.669670     16.641920     16.641920     33.283840
     -4.659660     14.665997     14.665997     29.331994
     -4.649650     12.913062     12.913062     25.826125
     -4.639640     11.952849     11.952849     23.905698
     -4.629630     12.405962     12.405962     24.811924
     -4.619620     14.797384     14.797384     29.594767
     -4.609610     19.381981     19.381981     38.763962
     -4.599600     25.984751     25.984751     51.969502
     -4.589590     33.919375     33.919375     67.838751
     -4.579580     42.052147     42.052147     84.104293
     -4.569570     49.042731     49.042731     98.085462
     -4.559560     53.717329     53.717329    107.434657
     -4.549550     55.447820     55.447820    110.895640
     -4.539540     54.376382     54.376382    108.752763
     -4.529530     51.373160     51.373160    102.746320
     -4.519520     47.729120     47.729120     95.458240
     -4.509510     44.706589     44.706589     89.413178
     -4.499499     43.130396     43.130396     86.260793
     -4.489489     43.173461     43.173461     86.346922
     -4.479479     44.394622     44.394622     88.789244
     -4.469469     45.978397     45.978397     91.956794
     -4.459459     47.058383     47.058383     94.116766
     -4.449449     46.999898     46.999898     93.999797
     -4.439439     45.560521     45.560521     91.121043
     -4.429429     42.907676     42.907676     85.815353
     -4.419419     39.521253     39.521253     79.042506
     -4.409409     36.032855     36.032855     72.065710
     -4.399399     33.053969     33.053969     66.107937
     -4.389389     31.033551     31.033551     62.067101
     -4.379379     30.170882     30.170882     60.341764
     -4.369369     30.395935     30.395935     60.791869
     -4.359359     31.416222     31.416222     62.832445
     -4.349349     32.815196     32.815196     65.630393
     -4.339339     34.174951     34.174951     68.349903
     -4.329329     35.189855     35.189855     70.379710
     -4.319319     35.741084     35.741084     71.482168
     -4.309309     35.914514     35.914514     71.829029
     -4.299299     35.961312     35.961312     71.922625
     -4.289289     36.215006     36.215006     72.430011
     -4.279279     36.985308     36.985308     73.970616
     -4.269269     38.448723     38.448723     76.897447
     -4.259259     40.556605     40.556605     81.113210
     -4.249249     42.988667     42.988667     85.977334
     -4.239239     45.186691     45.186691     90.373382
     -4.229229     46.490422     46.490422     92.980843
     -4.219219     46.353871     46.353871     92.707742
     -4.209209     44.562836     44.562836     89.125672
     -4.199199     41.346451     41.346451     82.692902
     -4.189189     37.311976     37.311976     74.623951
     -4.179179     33.222521     33.222521     66.445041
     -4.169169     29.725495     29.725495     59.450990
     -4.159159     27.164816     27.164816     54.329632
     -4.149149     25.556536     25.556536     51.113072
     -4.139139     24.714462     24.714462     49.428924
     -4.129129     24.438427     24.438427     48.876853
     -4.119119     24.658480     24.658480     49.316960
     -4.109109     25.461213     25.461213     50.922426
     -4.099099     26.986465     26.986465     53.972931
     -4.089089     29.248650     29.248650     58.497300
     -4.079079     31.983098     31.983098     63.966196
     -4.069069     34.619888     34.619888     69.239776
     -4.059059     36.431897     36.431897     72.863794
     -4.049049     36.808325     36.808325     73.616649
     -4.039039     35.522818     35.522818     71.045636
     -4.029029     32.854378     32.854378     65.708756
     -4.019019     29.495518     29.495518     58.991035
     -4.009009     26.300399     26.300399     52.600797
     -3.998999     24.008316     24.008316     48.016632
     -3.988989     23.072524     23.072524     46.145047
     -3.978979     23.642363     23.642363     47.284726
     -3.968969     25.651289     25.651289     51.302579
     -3.958959     28.919963     28.919963     57.839925
     -3.948949     33.211519     33.211519     66.423038
     -3.938939     38.240312     38.240312     76.480624
     -3.928929     43.679262     43.679262     87.358525
     -3.918919     49.202370     49.202370     98.404740
     -3.908909     54.552054     54.552054    109.104108
     -3.898899     59.580043     59.580043    119.160086
     -3.888889     64.212391     64.212391    128.424781
     -3.878879     68.336360     68.336360    136.672719
     -3.868869     71.668148     71.668148    143.336297
     -3.858859     73.693430     73.693430    147.386859
     -3.848849     73.750676     73.750676    147.501352
     -3.838839     71.255462     71.255462    142.510923
     -3.828829     65.979437     65.979437    131.958874
     -3.818819     58.250879     58.250879    116.501758
     -3.808809     48.967617     48.967617     97.935234
     -3.798799     39.398677     39.398677     78.797354
     -3.788789     30.849644     30.849644     61.699288
     -3.778779     24.322822     24.322822     48.645643
     -3.768769     20.291594     20.291594     40.583187
     -3.758759     18.647263     18.647263     37.294526
     -3.748749     18.807479     18.807479     37.614957
     -3.738739     19.930788     19.930788     39.861575
     -3.728729     21.168940     21.168940     42.337880
     -3.718719     21.895551     21.895551     43.791102
     -3.708709     21.862820     21.862820     43.725640
     -3.698699     21.252132     21.252132     42.504264
     -3.688689     20.602412     20.602412     41.204824
     -3.678679     20.626253     20.626253     41.252507
     -3.668669     21.957284     21.957284     43.914568
     -3.658659     24.903764     24.903764     49.807529
     -3.648649     29.296479     29.296479     58.592957
     -3.638639     34.497398     34.497398     68.994796
     -3.628629     39.577085     39.577085     79.154170
     -3.618619     43.595364     43.595364     87.190728
     -3.608609     45.871548     45.871548     91.743096
     -3.598599     46.139755     46.139755     92.279509
     -3.588589     44.548250     44.548250     89.096500
     -3.578579     41.537913     41.537913     83.075825
     -3.568569     37.675559     37.675559     75.351118
     -3.558559     33.506706     33.506706     67.013412
     -3.548549     29.454529     29.454529     58.909058
     -3.538539     25.765080     25.765080     51.530160
     -3.528529     22.497282     22.497282     44.994565
     -3.518519     19.562533     19.562533     39.125066
     -3.508509     16.810209     16.810209     33.620418
     -3.498498     14.131596     14.131596     28.263192
     -3.488488     11.537818     11.537818     23.075637
     -3.478478      9.176594      9.176594     18.353189
     -3.468468      7.283889      7.283889     14.567777
     -3.458458      6.096870      6.096870     12.193739
     -3.448448      5.765093      5.765093     11.530187
     -3.438438      6.288316      6.288316     12.576632
     -3.428428      7.496110      7.496110     14.992220
     -3.418418      9.076497      9.076497     18.152994
     -3.408408     10.654343     10.654343     21.308686
     -3.398398     11.906046     11.906046     23.812092
     -3.388388     12.675792     12.675792     25.351584
     -3.378378     13.045340     13.045340     26.090680
     -3.368368     13.320611     13.320611     26.641221
     -3.358358     13.934447     13.934447     27.868894
     -3.348348     15.304520     15.304520     30.609040
     -3.338338     17.701454     17.701454     35.402908
     -3.328328     21.165111     21.165111     42.330222
     -3.318318     25.474176     25.474176     50.948352
     -3.308308     30.155563     30.155563     60.311126
     -3.298298     34.529832     34.529832     69.059664
     -3.288288     37.809359     37.809359     75.618717
     -3.278278     39.263633     39.263633     78.527266
     -3.268268     38.426125     38.426125     76.852250
     -3.258258     35.265932     35.265932     70.531863
     -3.248248     30.233594     30.233594     60.467188
     -3.238238     24.139660     24.139660     48.279320
     -3.228228     17.910503     17.910503     35.821006
     -3.218218     12.329403     12.329403     24.658805
     -3.208208      7.869448      7.869448     15.738895
     -3.198198      4.665570      4.665570      9.331140
     -3.188188      2.601423      2.601423      5.202847
     -3.178178      1.446480      1.446480      2.892960
     -3.168168      0.981814      0.981814      1.963627
     -3.158158      1.081404      1.081404      2.162807
     -3.148148      1.743206      1.743206      3.486411
     -3.138138      3.076510      3.076510      6.153021
     -3.128128      5.252017      5.252017     10.504034
     -3.118118      8.420413      8.420413     16.840827
     -3.108108     12.613444     12.613444     25.226889
     -3.098098     17.657513     17.657513     35.315026
     -3.088088     23.141870     23.141870     46.283740
     -3.078078     28.475520     28.475520     56.951041
     -3.068068     33.032039     33.032039     66.064079
     -3.058058     36.331739     36.331739     72.663479
     -3.048048     38.176481     38.176481     76.352962
     -3.038038     38.664426     38.664426     77.328851
     -3.028028     38.074993     38.074993     76.149987
     -3.018018     36.694312     36.694312     73.388623
     -3.008008     34.693172     34.693172     69.386343
     -2.997998     32.137370     32.137370     64.274739
     -2.987988     29.120946     29.120946     58.241893
     -2.977978     25.927234     25.927234     51.854467
     -2.967968     23.100103     23.100103     46.200206
     -2.957958     21.360584     21.360584     42.721168
     -2.947948     21.392352     21.392352     42.784704
     -2.937938     23.587574     23.587574     47.175147
     -2.927928     27.860836     27.860836     55.721672
     -2.917918     33.607637     33.607637     67.215274
     -2.907908     39.828459     39.828459     79.656918
     -2.897898     45.381891     45.381891     90.763782
     -2.887888     49.286283     49.286283     98.572565
     -2.877878     50.971346     50.971346    101.942693
     -2.867868     50.397104     50.397104    100.794208
     -2.857858     48.004589     48.004589     96.009178
     -2.847848     44.523646     44.523646     89.047293
     -2.837838     40.713741     40.713741     81.427482
     -2.827828     37.134148     37.134148     74.268297
     -2.817818     34.023336     34.023336     68.046672
     -2.807808     31.320620     31.320620     62.641240
     -2.797798     28.804184     28.804184     57.608369
     -2.787788     26.271977     26.271977     52.543953
     -2.777778     23.677212     23.677212     47.354424
     -2.767768     21.157121     21.157121     42.314242
     -2.757758     18.951153     18.951153     37.902306
     -2.747748     17.264442     17.264442     34.528884
     -2.737738     16.161115     16.161115     32.322230
     -2.727728     15.551945     15.551945     31.103890
     -2.717718     15.281661     15.281661     30.563321
     -2.707708     15.257499     15.257499     30.514997
     -2.697698     15.532165     15.532165     31.064331
     -2.687688     16.281140     16.281140     32.562280
     -2.677678     17.681467     17.681467     35.362935
     -2.667668     19.765143     19.765143     39.530286
     -2.657658     22.341752     22.341752     44.683504
     -2.647648     25.045727     25.045727     50.091455
     -2.637638     27.486203     27.486203     54.972405
     -2.627628     29.411702     29.411702     58.823404
     -2.617618     30.792681     30.792681     61.585362
     -2.607608     31.779978     31.779978     63.559957
     -2.597598     32.578058     32.578058     65.156115
     -2.587588     33.320095     33.320095     66.640189
     -2.577578     34.014305     34.014305     68.028610
     -2.567568     34.567282     34.567282     69.134564
     -2.557558     34.836763     34.836763     69.673526
     -2.547548     34.666031     34.666031     69.332062
     -2.537538     33.896644     33.896644     67.793289
     -2.527528     32.395606     32.395606     64.791212
     -2.517518     30.125212     30.125212     60.250424
     -2.507508     27.234475     27.234475     54.468951
     -2.497497     24.107426     24.107426     48.214852
     -2.487487     21.309316     21.309316     42.618632
     -2.477477     19.427868     19.427868     38.855736
     -2.467467     18.873407     18.873407     37.746814
     -2.457457     19.733169     19.733169     39.466337
     -2.447447     21.752567     21.752567     43.505134
     -2.437437     24.454689     24.454689     48.909377
     -2.427427     27.342337     27.342337     54.684674
     -2.417417     30.086954     30.086954     60.173908
     -2.407407     32.614316     32.614316     65.228632
     -2.397397     35.046306     35.046306     70.092612
     -2.387387     37.529282     37.529282     75.058565
     -2.377377     40.038397     40.038397     80.076793
     -2.367367     42.263778     42.263778     84.527557
     -2.357357     43.648664     43.648664     87.297329
     -2.347347     43.577057     43.577057     87.154113
     -2.337337     41.633766     41.633766     83.267532
     -2.327327     37.820150     37.820150     75.640300
     -2.317317     32.626056     32.626056     65.252113
     -2.307307     26.924640     26.924640     53.849280
     -2.297297     21.736422     21.736422     43.472845
     -2.287287     17.959693     17.959693     35.919386
     -2.277277     16.163622     16.163622     32.327244
     -2.267267     16.498718     16.498718     32.997435
     -2.257257     18.727053     18.727053     37.454106
     -2.247247     22.337772     22.337772     44.675545
     -2.237237     26.698462     26.698462     53.396924
     -2.227227     31.193644     31.193644     62.387288
     -2.217217     35.312809     35.312809     70.625618
     -2.207207     38.672670     38.672670     77.345340
     -2.197197     40.989597     40.989597     81.979194
     -2.187187     42.045028     42.045028     84.090057
     -2.177177     41.689083     41.689083     83.378166
     -2.167167     39.896512     39.896512     79.793024
     -2.157157     36.840466     36.840466     73.680932
     -2.147147     32.918557     32.918557     65.837114
     -2.137137     28.681406     28.681406     57.362811
     -2.127127     24.672694     24.672694     49.345388
     -2.117117     21.252942     21.252942     42.505883
     -2.107107     18.499900     18.499900     36.999801
     -2.097097     16.238520     16.238520     32.477040
     -2.087087     14.178822     14.178822     28.357644
     -2.077077     12.081371     12.081371     24.162742
     -2.067067      9.864327      9.864327     19.728654
     -2.057057      7.611067      7.611067     15.222133
     -2.047047      5.497670      5.497670     10.995341
     -2.037037      3.695992      3.695992      7.391983
     -2.027027      2.304807      2.304807      4.609614
     -2.017017      1.331469      1.331469      2.662937
     -2.007007      0.714925      0.714925      1.429851
     -1.996997      0.365869      0.365869      0.731738
     -1.986987      0.202927      0.202927      0.405853
     -1.976977      0.175767      0.175767      0.351535
     -1.966967      0.276136      0.276136      0.552273
     -1.956957      0.541068      0.541068      1.082136
     -1.946947      1.049707      1.049707      2.099413
     -1.936937      1.910608      1.910608      3.821216
     -1.926927      3.234878      3.234878      6.469756
     -1.916917      5.095043      5.095043     10.190087
     -1.906907      7.479045      7.479045     14.958090
     -1.896897     10.257576     10.257576     20.515152
     -1.886887     13.183767     13.183767     26.367534
     -1.876877     15.933570     15.933570     31.867140
     -1.866867     18.178022     18.178022     36.356044
     -1.856857     19.664858     19.664858     39.329717
     -1.846847     20.283731     20.283731     40.567462
     -1.836837     20.095095     20.095095     40.190189
     -1.826827     19.311803     19.311803     38.623606
     -1.816817     18.232704     18.232704     36.465409
     -1.806807     17.142322     17.142322     34.284645
     -1.796797     16.209580     16.209580     32.419160
     -1.786787     15.430065     15.430065     30.860130
     -1.776777     14.645021     14.645021     29.290042
     -1.766767     13.633906     13.633906     27.267811
     -1.756757     12.235927     12.235927     24.471854
     -1.746747     10.438645     10.438645     20.877290
     -1.736737      8.392702      8.392702     16.785403
     -1.726727      6.356744      6.356744     12.713488
     -1.716717      4.614199      4.614199      9.228397
     -1.706707      3.409881      3.409881      6.819762
     -1.696697      2.929534      2.929534      5.859067
     -1.686687      3.309749      3.309749      6.619499
     -1.676677      4.643534      4.643534      9.287067
     -1.666667      6.951306      6.951306     13.902612
     -1.656657     10.115790     10.115790     20.231579
     -1.646647     13.815717     13.815717     27.631434
     -1.636637     17.514517     17.514517     35.029033
     -1.626627     20.547200     20.547200     41.094401
