# EIG2DOS: Utility for SIESTA to obtain the electronic density of states
#  E. Artacho, Apr 1999, A. Garcia, Apr 2012
#  Nick R. Papior, Feb 2017
# ------------------------------------------
# Eigenvalues calculated from a non-polarized calculation
# Eigenvalues read from siesta.EIG
# Kpoint weights read from siesta.KP
# Using smearing parameter:   0.0500
# Using 1000 points in the energy range
# Selected bands: 1 to: 2981
# Emin, Emax in file for selected band(s):    -27.0988027    218.3391880
# Nbands, Nspin, Nk   =   2981     1     1
# E_F                 =    -4.2702 eV --> (shifted to ZERO)
# Broadening          =     0.0500 eV
#
#        E            N(up)  (=)   N(down)         Ntot
     -5.000000     38.079272     38.079272     76.158545
     -4.989990     40.149728     40.149728     80.299456
     -4.979980     42.019391     42.019391     84.038782
     -4.969970     43.271177     43.271177     86.542354
     -4.959960     43.534452     43.534452     87.068904
     -4.949950     42.617351     42.617351     85.234702
     -4.939940     40.580096     40.580096     81.160193
     -4.929930     37.740166     37.740166     75.480331
     -4.919920     34.627817     34.627817     69.255635
     -4.909910     31.915284     31.915284     63.830569
     -4.899900     30.325731     30.325731     60.651462
     -4.889890     30.507508     30.507508     61.015016
     -4.879880     32.862056     32.862056     65.724111
     -4.869870     37.352478     37.352478     74.704957
     -4.859860     43.373647     43.373647     86.747294
     -4.849850     49.786379     49.786379     99.572759
     -4.839840     55.169544     55.169544    110.339088
     -4.829830     58.234627     58.234627    116.469254
     -4.819820     58.241209     58.241209    116.482417
     -4.809810     55.225665     55.225665    110.451329
     -4.799800     49.938955     49.938955     99.877910
     -4.789790     43.535917     43.535917     87.071834
     -4.779780     37.175360     37.175360     74.350720
     -4.769770     31.707671     31.707671     63.415343
     -4.759760     27.547532     27.547532     55.095064
     -4.749750     24.719440     24.719440     49.438879
     -4.739740     22.994096     22.994096     45.988192
     -4.729730     22.029962     22.029962     44.059925
     -4.719720     21.472620     21.472620     42.945241
     -4.709710     21.006381     21.006381     42.012761
     -4.699700     20.376422     20.376422     40.752845
     -4.689690     19.405181     19.405181     38.810361
     -4.679680     18.019769     18.019769     36.039538
     -4.669670     16.291966     16.291966     32.583931
     -4.659660     14.474169     14.474169     28.948338
     -4.649650     13.003591     13.003591     26.007183
     -4.639640     12.450612     12.450612     24.901225
     -4.629630     13.404290     13.404290     26.808581
     -4.619620     16.310328     16.310328     32.620655
     -4.609610     21.297925     21.297925     42.595849
     -4.599600     28.049283     28.049283     56.098566
     -4.589590     35.773135     35.773135     71.546269
     -4.579580     43.328696     43.328696     86.657392
     -4.569570     49.499366     49.499366     98.998732
     -4.559560     53.346970     53.346970    106.693941
     -4.549550     54.521492     54.521492    109.042984
     -4.539540     53.396249     53.396249    106.792497
     -4.529530     50.957876     50.957876    101.915752
     -4.519520     48.479778     48.479778     96.959555
     -4.509510     47.097779     47.097779     94.195557
     -4.499499     47.443976     47.443976     94.887952
     -4.489489     49.465197     49.465197     98.930393
     -4.479479     52.475499     52.475499    104.950998
     -4.469469     55.405455     55.405455    110.810911
     -4.459459     57.148969     57.148969    114.297937
     -4.449449     56.888873     56.888873    113.777746
     -4.439439     54.305027     54.305027    108.610055
     -4.429429     49.619919     49.619919     99.239837
     -4.419419     43.496136     43.496136     86.992273
     -4.409409     36.844108     36.844108     73.688217
     -4.399399     30.610444     30.610444     61.220887
     -4.389389     25.598180     25.598180     51.196359
     -4.379379     22.339983     22.339983     44.679965
     -4.369369     21.027243     21.027243     42.054485
     -4.359359     21.499018     21.499018     42.998036
     -4.349349     23.300688     23.300688     46.601375
     -4.339339     25.813568     25.813568     51.627136
     -4.329329     28.430057     28.430057     56.860113
     -4.319319     30.721300     30.721300     61.442601
     -4.309309     32.538607     32.538607     65.077215
     -4.299299     34.013162     34.013162     68.026323
     -4.289289     35.457418     35.457418     70.914837
     -4.279279     37.204277     37.204277     74.408555
     -4.269269     39.435693     39.435693     78.871387
     -4.259259     42.054638     42.054638     84.109275
     -4.249249     44.649405     44.649405     89.298809
     -4.239239     46.582485     46.582485     93.164969
     -4.229229     47.196787     47.196787     94.393573
     -4.219219     46.073767     46.073767     92.147533
     -4.209209     43.231924     43.231924     86.463847
     -4.199199     39.161051     39.161051     78.322102
     -4.189189     34.660683     34.660683     69.321366
     -4.179179     30.553873     30.553873     61.107746
     -4.169169     27.414532     27.414532     54.829064
     -4.159159     25.433796     25.433796     50.867592
     -4.149149     24.469383     24.469383     48.938766
     -4.139139     24.226164     24.226164     48.452328
     -4.129129     24.460510     24.460510     48.921019
     -4.119119     25.104730     25.104730     50.209460
     -4.109109     26.256273     26.256273     52.512545
     -4.099099     28.042464     28.042464     56.084927
     -4.089089     30.432386     30.432386     60.864772
     -4.079079     33.101911     33.101911     66.203822
     -4.069069     35.444972     35.444972     70.889944
     -4.059059     36.756640     36.756640     73.513280
     -4.049049     36.517278     36.517278     73.034556
     -4.039039     34.637939     34.637939     69.275878
     -4.029029     31.535819     31.535819     63.071639
     -4.019019     27.997856     27.997856     55.995712
     -4.009009     24.906158     24.906158     49.812316
     -3.998999     22.966297     22.966297     45.932594
     -3.988989     22.558377     22.558377     45.116754
     -3.978979     23.743439     23.743439     47.486878
     -3.968969     26.368499     26.368499     52.736999
     -3.958959     30.179917     30.179917     60.359834
     -3.948949     34.887411     34.887411     69.774822
     -3.938939     40.182088     40.182088     80.364176
     -3.928929     45.749044     45.749044     91.498088
     -3.918919     51.303219     51.303219    102.606438
     -3.908909     56.634619     56.634619    113.269238
     -3.898899     61.618316     61.618316    123.236632
     -3.888889     66.156033     66.156033    132.312067
     -3.878879     70.064328     70.064328    140.128656
     -3.868869     72.974729     72.974729    145.949457
     -3.858859     74.325927     74.325927    148.651854
     -3.848849     73.491587     73.491587    146.983175
     -3.838839     70.015380     70.015380    140.030761
     -3.828829     63.856759     63.856759    127.713519
     -3.818819     55.527937     55.527937    111.055875
     -3.808809     46.042656     46.042656     92.085312
     -3.798799     36.681748     36.681748     73.363495
     -3.788789     28.662714     28.662714     57.325427
     -3.778779     22.836455     22.836455     45.672910
     -3.768769     19.510822     19.510822     39.021643
     -3.758759     18.440284     18.440284     36.880569
     -3.748749     18.960690     18.960690     37.921379
     -3.738739     20.212616     20.212616     40.425232
     -3.728729     21.388516     21.388516     42.777032
     -3.718719     21.946059     21.946059     43.892118
     -3.708709     21.742100     21.742100     43.484200
     -3.698699     21.055941     21.055941     42.111882
     -3.688689     20.490393     20.490393     40.980787
     -3.678679     20.767523     20.767523     41.535045
     -3.668669     22.470078     22.470078     44.940156
     -3.658659     25.808457     25.808457     51.616914
     -3.648649     30.499524     30.499524     60.999047
     -3.638639     35.813622     35.813622     71.627244
     -3.628629     40.782200     40.782200     81.564401
     -3.618619     44.487412     44.487412     88.974825
     -3.608609     46.317432     46.317432     92.634865
     -3.598599     46.093100     46.093100     92.186200
     -3.588589     44.040673     44.040673     88.081346
     -3.578579     40.656461     40.656461     81.312921
     -3.568569     36.538711     36.538711     73.077421
     -3.558559     32.243639     32.243639     64.487277
     -3.548549     28.186272     28.186272     56.372544
     -3.538539     24.586899     24.586899     49.173797
     -3.528529     21.466294     21.466294     42.932587
     -3.518519     18.696381     18.696381     37.392763
     -3.508509     16.098344     16.098344     32.196689
     -3.498498     13.553687     13.553687     27.107373
     -3.488488     11.080036     11.080036     22.160071
     -3.478478      8.838719      8.838719     17.677439
     -3.468468      7.075993      7.075993     14.151986
     -3.458458      6.029219      6.029219     12.058438
     -3.448448      5.836579      5.836579     11.673158
     -3.438438      6.478015      6.478015     12.956030
     -3.428428      7.761411      7.761411     15.522822
     -3.418418      9.359997      9.359997     18.719994
     -3.408408     10.899330     10.899330     21.798659
     -3.398398     12.076446     12.076446     24.152891
     -3.388388     12.772821     12.772821     25.545642
     -3.378378     13.112905     13.112905     26.225811
     -3.368368     13.436023     13.436023     26.872046
     -3.358358     14.187763     14.187763     28.375525
     -3.348348     15.774159     15.774159     31.548317
     -3.338338     18.432694     18.432694     36.865388
     -3.328328     22.153579     22.153579     44.307159
     -3.318318     26.653854     26.653854     53.307708
     -3.308308     31.393732     31.393732     62.787463
     -3.298298     35.637018     35.637018     71.274037
     -3.288288     38.572881     38.572881     77.145762
     -3.278278     39.503337     39.503337     79.006673
     -3.268268     38.054520     38.054520     76.109041
     -3.258258     34.324816     34.324816     68.649633
     -3.248248     28.886074     28.886074     57.772148
     -3.238238     22.618522     22.618522     45.237045
     -3.228228     16.446861     16.446861     32.893722
     -3.218218     11.094200     11.094200     22.188400
     -3.208208      6.950639      6.950639     13.901278
     -3.198198      4.084667      4.084667      8.169334
     -3.188188      2.357721      2.357721      4.715442
     -3.178178      1.572333      1.572333      3.144666
     -3.168168      1.594738      1.594738      3.189475
     -3.158158      2.420916      2.420916      4.841833
     -3.148148      4.177971      4.177971      8.355942
     -3.138138      7.064110      7.064110     14.128220
     -3.128128     11.238887     11.238887     22.477774
     -3.118118     16.690359     16.690359     33.380718
     -3.108108     23.125913     23.125913     46.251826
     -3.098098     29.943622     29.943622     59.887244
     -3.088088     36.323739     36.323739     72.647479
     -3.078078     41.431667     41.431667     82.863333
     -3.068068     44.663577     44.663577     89.327154
     -3.058058     45.828681     45.828681     91.657362
     -3.048048     45.177194     45.177194     90.354388
     -3.038038     43.252500     43.252500     86.504999
     -3.028028     40.637139     40.637139     81.274279
     -3.018018     37.722525     37.722525     75.445049
     -3.008008     34.621110     34.621110     69.242219
     -2.997998     31.258488     31.258488     62.516977
     -2.987988     27.579449     27.579449     55.158898
     -2.977978     23.741022     23.741022     47.482044
     -2.967968     20.182482     20.182482     40.364963
     -2.957958     17.538638     17.538638     35.077275
     -2.947948     16.444265     16.444265     32.888530
     -2.937938     17.317806     17.317806     34.635612
     -2.927928     20.203777     20.203777     40.407553
     -2.917918     24.719437     24.719437     49.438873
     -2.907908     30.117871     30.117871     60.235742
     -2.897898     35.453636     35.453636     70.907271
     -2.887888     39.812211     39.812211     79.624423
     -2.877878     42.539638     42.539638     85.079275
     -2.867868     43.396656     43.396656     86.793313
     -2.857858     42.578801     42.578801     85.157603
     -2.847848     40.592395     40.592395     81.184789
     -2.837838     38.037163     38.037163     76.074326
     -2.827828     35.388065     35.388065     70.776129
     -2.817818     32.867910     32.867910     65.735821
     -2.807808     30.456708     30.456708     60.913415
     -2.797798     28.015798     28.015798     56.031596
     -2.787788     25.449799     25.449799     50.899597
     -2.777778     22.815841     22.815841     45.631683
     -2.767768     20.324585     20.324585     40.649171
     -2.757758     18.241617     18.241617     36.483235
     -2.747748     16.755266     16.755266     33.510532
     -2.737738     15.894519     15.894519     31.789039
     -2.727728     15.547484     15.547484     31.094968
     -2.717718     15.565744     15.565744     31.131488
     -2.707708     15.882975     15.882975     31.765951
     -2.697698     16.564612     16.564612     33.129224
     -2.687688     17.749380     17.749380     35.498761
     -2.677678     19.516853     19.516853     39.033705
     -2.667668     21.769736     21.769736     43.539471
     -2.657658     24.216618     24.216618     48.433235
     -2.647648     26.478474     26.478474     52.956948
     -2.637638     28.259990     28.259990     56.519981
     -2.627628     29.481040     29.481040     58.962080
     -2.617618     30.288083     30.288083     60.576166
     -2.607608     30.943938     30.943938     61.887876
     -2.597598     31.670987     31.670987     63.341974
     -2.587588     32.542544     32.542544     65.085088
     -2.577578     33.469938     33.469938     66.939876
     -2.567568     34.261479     34.261479     68.522958
     -2.557558     34.692472     34.692472     69.384944
     -2.547548     34.546763     34.546763     69.093526
     -2.537538     33.640554     33.640554     67.281107
     -2.527528     31.865647     31.865647     63.731294
     -2.517518     29.265698     29.265698     58.531396
     -2.507508     26.109018     26.109018     52.218035
     -2.497497     22.894196     22.894196     45.788391
     -2.487487     20.249388     20.249388     40.498776
     -2.477477     18.747435     18.747435     37.494869
     -2.467467     18.713868     18.713868     37.427736
     -2.457457     20.117444     20.117444     40.234888
     -2.447447     22.597008     22.597008     45.194016
     -2.437437     25.615174     25.615174     51.230349
     -2.427427     28.669965     28.669965     57.339930
     -2.417417     31.467428     31.467428     62.934856
     -2.407407     33.975207     33.975207     67.950414
     -2.397397     36.333314     36.333314     72.666628
     -2.387387     38.668879     38.668879     77.337759
     -2.377377     40.911925     40.911925     81.823851
     -2.367367     42.712959     42.712959     85.425917
     -2.357357     43.516621     43.516621     87.033241
     -2.347347     42.769873     42.769873     85.539747
     -2.337337     40.174730     40.174730     80.349461
     -2.327327     35.869465     35.869465     71.738930
     -2.317317     30.453595     30.453595     60.907190
     -2.307307     24.845087     24.845087     49.690173
     -2.297297     20.033003     20.033003     40.066006
     -2.287287     16.825502     16.825502     33.651005
     -2.277277     15.678065     15.678065     31.356129
     -2.267267     16.638924     16.638924     33.277848
     -2.257257     19.400303     19.400303     38.800607
     -2.247247     23.416425     23.416425     46.832849
     -2.237237     28.043131     28.043131     56.086263
     -2.227227     32.659780     32.659780     65.319559
     -2.217217     36.746141     36.746141     73.492282
     -2.207207     39.906115     39.906115     79.812230
     -2.197197     41.854464     41.854464     83.708927
     -2.187187     42.401410     42.401410     84.802820
     -2.177177     41.467197     41.467197     82.934393
     -2.167167     39.129652     39.129652     78.259304
     -2.157157     35.668741     35.668741     71.337482
     -2.147147     31.553724     31.553724     63.107448
     -2.137137     27.342324     27.342324     54.684649
     -2.127127     23.517708     23.517708     47.035416
     -2.117117     20.339225     20.339225     40.678451
     -2.107107     17.787011     17.787011     35.574023
     -2.097097     15.630832     15.630832     31.261663
     -2.087087     13.582545     13.582545     27.165090
     -2.077077     11.447548     11.447548     22.895097
     -2.067067      9.200825      9.200825     18.401649
     -2.057057      6.965408      6.965408     13.930817
     -2.047047      4.926504      4.926504      9.853007
     -2.037037      3.239165      3.239165      6.478330
     -2.027027      1.974268      1.974268      3.948537
     -2.017017      1.114719      1.114719      2.229438
     -2.007007      0.586206      0.586206      1.172413
     -1.996997      0.297674      0.297674      0.595347
     -1.986987      0.173650      0.173650      0.347301
     -1.976977      0.172987      0.172987      0.345974
     -1.966967      0.296987      0.296987      0.593974
     -1.956957      0.591233      0.591233      1.182466
     -1.946947      1.141561      1.141561      2.283121
     -1.936937      2.060124      2.060124      4.120248
     -1.926927      3.456814      3.456814      6.913629
     -1.916917      5.396752      5.396752     10.793504
     -1.906907      7.854493      7.854493     15.708987
     -1.896897     10.683959     10.683959     21.367919
     -1.886887     13.622620     13.622620     27.245240
     -1.876877     16.336795     16.336795     32.673589
     -1.866867     18.497587     18.497587     36.995174
     -1.856857     19.864045     19.864045     39.728091
     -1.846847     20.347757     20.347757     40.695514
     -1.836837     20.039273     20.039273     40.078547
     -1.826827     19.186168     19.186168     38.372337
     -1.816817     18.123856     18.123856     36.247711
     -1.806807     17.176012     17.176012     34.352025
     -1.796797     16.558746     16.558746     33.117492
     -1.786787     16.328925     16.328925     32.657850
     -1.776777     16.399708     16.399708     32.799415
     -1.766767     16.609495     16.609495     33.218990
     -1.756757     16.798942     16.798942     33.597885
     -1.746747     16.850755     16.850755     33.701509
     -1.736737     16.681297     16.681297     33.362595
     -1.726727     16.214219     16.214219     32.428437
     -1.716717     15.379377     15.379377     30.758754
     -1.706707     14.154302     14.154302     28.308604
     -1.696697     12.622796     12.622796     25.245591
     -1.686687     11.001975     11.001975     22.003949
     -1.676677      9.603165      9.603165     19.206331
     -1.666667      8.731588      8.731588     17.463176
     -1.656657      8.566539      8.566539     17.133077
     -1.646647      9.076782      9.076782     18.153563
     -1.636637     10.012059     10.012059     20.024118
     -1.626627     10.980740     10.980740     21.961481
