# EIG2DOS: Utility for SIESTA to obtain the electronic density of states
#  E. Artacho, Apr 1999, A. Garcia, Apr 2012
#  Nick R. Papior, Feb 2017
# ------------------------------------------
# Eigenvalues calculated from a non-polarized calculation
# Eigenvalues read from siesta.EIG
# Kpoint weights read from siesta.KP
# Using smearing parameter:   0.0500
# Using 1000 points in the energy range
# Selected bands: 1 to: 2981
# Emin, Emax in file for selected band(s):    -27.2992051    218.4004360
# Nbands, Nspin, Nk   =   2981     1     1
# E_F                 =    -4.1922 eV --> (shifted to ZERO)
# Broadening          =     0.0500 eV
#
#        E            N(up)  (=)   N(down)         Ntot
     -5.000000     30.344565     30.344565     60.689130
     -4.989990     35.646219     35.646219     71.292439
     -4.979980     40.882837     40.882837     81.765673
     -4.969970     45.154346     45.154346     90.308692
     -4.959960     47.638910     47.638910     95.277819
     -4.949950     47.865149     47.865149     95.730298
     -4.939940     45.875368     45.875368     91.750735
     -4.929930     42.225253     42.225253     84.450505
     -4.919920     37.841513     37.841513     75.683027
     -4.909910     33.806261     33.806261     67.612523
     -4.899900     31.133849     31.133849     62.267697
     -4.889890     30.572512     30.572512     61.145023
     -4.879880     32.440660     32.440660     64.881321
     -4.869870     36.518202     36.518202     73.036403
     -4.859860     42.038788     42.038788     84.077576
     -4.849850     47.829041     47.829041     95.658082
     -4.839840     52.593375     52.593375    105.186750
     -4.829830     55.268469     55.268469    110.536938
     -4.819820     55.319532     55.319532    110.639063
     -4.809810     52.861914     52.861914    105.723828
     -4.799800     48.566269     48.566269     97.132538
     -4.789790     43.401694     43.401694     86.803389
     -4.779780     38.334581     38.334581     76.669162
     -4.769770     34.099289     34.099289     68.198577
     -4.759760     31.099373     31.099373     62.198747
     -4.749750     29.425347     29.425347     58.850694
     -4.739740     28.929620     28.929620     57.859240
     -4.729730     29.300252     29.300252     58.600504
     -4.719720     30.110246     30.110246     60.220491
     -4.709710     30.858653     30.858653     61.717305
     -4.699700     31.036604     31.036604     62.073208
     -4.689690     30.235758     30.235758     60.471517
     -4.679680     28.280199     28.280199     56.560399
     -4.669670     25.331272     25.331272     50.662544
     -4.659660     21.911538     21.911538     43.823076
     -4.649650     18.822576     18.822576     37.645151
     -4.639640     16.972285     16.972285     33.944570
     -4.629630     17.155183     17.155183     34.310366
     -4.619620     19.835197     19.835197     39.670395
     -4.609610     24.977219     24.977219     49.954437
     -4.599600     31.975423     31.975423     63.950845
     -4.589590     39.726613     39.726613     79.453227
     -4.579580     46.871534     46.871534     93.743069
     -4.569570     52.163809     52.163809    104.327618
     -4.559560     54.849688     54.849688    109.699376
     -4.549550     54.904554     54.904554    109.809108
     -4.539540     53.013151     53.013151    106.026302
     -4.529530     50.289194     50.289194    100.578387
     -4.519520     47.848720     47.848720     95.697440
     -4.509510     46.415165     46.415165     92.830331
     -4.499499     46.111518     46.111518     92.223035
     -4.489489     46.503635     46.503635     93.007270
     -4.479479     46.848176     46.848176     93.696352
     -4.469469     46.420449     46.420449     92.840898
     -4.459459     44.782118     44.782118     89.564236
     -4.449449     41.895275     41.895275     83.790550
     -4.439439     38.069886     38.069886     76.139772
     -4.429429     33.805668     33.805668     67.611335
     -4.419419     29.622509     29.622509     59.245018
     -4.409409     25.953450     25.953450     51.906900
     -4.399399     23.117904     23.117904     46.235807
     -4.389389     21.338105     21.338105     42.676211
     -4.379379     20.744528     20.744528     41.489055
     -4.369369     21.344860     21.344860     42.689719
     -4.359359     22.980314     22.980314     45.960629
     -4.349349     25.321538     25.321538     50.643075
     -4.339339     27.940384     27.940384     55.880768
     -4.329329     30.444727     30.444727     60.889455
     -4.319319     32.617288     32.617288     65.234576
     -4.309309     34.487650     34.487650     68.975301
     -4.299299     36.294657     36.294657     72.589315
     -4.289289     38.345460     38.345460     76.690920
     -4.279279     40.823139     40.823139     81.646278
     -4.269269     43.621213     43.621213     87.242426
     -4.259259     46.283547     46.283547     92.567094
     -4.249249     48.097993     48.097993     96.195987
     -4.239239     48.332604     48.332604     96.665209
     -4.229229     46.532146     46.532146     93.064292
     -4.219219     42.746384     42.746384     85.492768
     -4.209209     37.576058     37.576058     75.152116
     -4.199199     32.001701     32.001701     64.003402
     -4.189189     27.065204     27.065204     54.130409
     -4.179179     23.544109     23.544109     47.088217
     -4.169169     21.754974     21.754974     43.509949
     -4.159159     21.552049     21.552049     43.104097
     -4.149149     22.494529     22.494529     44.989058
     -4.139139     24.087506     24.087506     48.175011
     -4.129129     25.983019     25.983019     51.966037
     -4.119119     28.056777     28.056777     56.113554
     -4.109109     30.336349     30.336349     60.672697
     -4.099099     32.826557     32.826557     65.653115
     -4.089089     35.332450     35.332450     70.664901
     -4.079079     37.391857     37.391857     74.783715
     -4.069069     38.381367     38.381367     76.762734
     -4.059059     37.765642     37.765642     75.531284
     -4.049049     35.370599     35.370599     70.741198
     -4.039039     31.534913     31.534913     63.069825
     -4.029029     27.054279     27.054279     54.108559
     -4.019019     22.943279     22.943279     45.886559
     -4.009009     20.130290     20.130290     40.260580
     -3.998999     19.219036     19.219036     38.438073
     -3.988989     20.395881     20.395881     40.791762
     -3.978979     23.479661     23.479661     46.959322
     -3.968969     28.052628     28.052628     56.105257
     -3.958959     33.601761     33.601761     67.203522
     -3.948949     39.628392     39.628392     79.256784
     -3.938939     45.719288     45.719288     91.438575
     -3.928929     51.587255     51.587255    103.174510
     -3.918919     57.080363     57.080363    114.160726
     -3.908909     62.145759     62.145759    124.291518
     -3.898899     66.740867     66.740867    133.481735
     -3.888889     70.716213     70.716213    141.432426
     -3.878879     73.728279     73.728279    147.456558
     -3.868869     75.246332     75.246332    150.492663
     -3.858859     74.680279     74.680279    149.360559
     -3.848849     71.594499     71.594499    143.188998
     -3.838839     65.921657     65.921657    131.843315
     -3.828829     58.081350     58.081350    116.162699
     -3.818819     48.945887     48.945887     97.891774
     -3.808809     39.658675     39.658675     79.317350
     -3.798799     31.367150     31.367150     62.734300
     -3.788789     24.958186     24.958186     49.916372
     -3.778779     20.874048     20.874048     41.748095
     -3.768769     19.052936     19.052936     38.105872
     -3.758759     18.998006     18.998006     37.996013
     -3.748749     19.946278     19.946278     39.892557
     -3.738739     21.089763     21.089763     42.179526
     -3.728729     21.794550     21.794550     43.589101
     -3.718719     21.766746     21.766746     43.533492
     -3.708709     21.124882     21.124882     42.249765
     -3.698699     20.356214     20.356214     40.712429
     -3.688689     20.159386     20.159386     40.318773
     -3.678679     21.207219     21.207219     42.414439
     -3.668669     23.894976     23.894976     47.789952
     -3.658659     28.158555     28.158555     56.317110
     -3.648649     33.437504     33.437504     66.875008
     -3.638639     38.811276     38.811276     77.622551
     -3.628629     43.266504     43.266504     86.533008
     -3.618619     45.992713     45.992713     91.985426
     -3.608609     46.591185     46.591185     93.182369
     -3.598599     45.127963     45.127963     90.255926
     -3.588589     42.038951     42.038951     84.077902
     -3.578579     37.954138     37.954138     75.908275
     -3.568569     33.518061     33.518061     67.036122
     -3.558559     29.253802     29.253802     58.507604
     -3.548549     25.483122     25.483122     50.966244
     -3.538539     22.301447     22.301447     44.602894
     -3.528529     19.608787     19.608787     39.217574
     -3.518519     17.194435     17.194435     34.388870
     -3.508509     14.854026     14.854026     29.708052
     -3.498498     12.496054     12.496054     24.992108
     -3.488488     10.193874     10.193874     20.387748
     -3.478478      8.164954      8.164954     16.329909
     -3.468468      6.694486      6.694486     13.388972
     -3.458458      6.041223      6.041223     12.082447
     -3.448448      6.360159      6.360159     12.720318
     -3.438438      7.659668      7.659668     15.319335
     -3.428428      9.796264      9.796264     19.592528
     -3.418418     12.504287     12.504287     25.008575
     -3.408408     15.454978     15.454978     30.909956
     -3.398398     18.332938     18.332938     36.665875
     -3.388388     20.910010     20.910010     41.820020
     -3.378378     23.095155     23.095155     46.190311
     -3.368368     24.947341     24.947341     49.894682
     -3.358358     26.650419     26.650419     53.300838
     -3.348348     28.455175     28.455175     56.910350
     -3.338338     30.593409     30.593409     61.186818
     -3.328328     33.171731     33.171731     66.343462
     -3.318318     36.068059     36.068059     72.136118
     -3.308308     38.876175     38.876175     77.752350
     -3.298298     40.951053     40.951053     81.902105
     -3.288288     41.577917     41.577917     83.155835
     -3.278278     40.223941     40.223941     80.447883
     -3.268268     36.769834     36.769834     73.539667
     -3.258258     31.607459     31.607459     63.214918
     -3.248248     25.547800     25.547800     51.095601
     -3.238238     19.578511     19.578511     39.157022
     -3.228228     14.580114     14.580114     29.160227
     -3.218218     11.112947     11.112947     22.225895
     -3.208208      9.333073      9.333073     18.666147
     -3.198198      9.031004      9.031004     18.062009
     -3.188188      9.752235      9.752235     19.504470
     -3.178178     10.957322     10.957322     21.914644
     -3.168168     12.188338     12.188338     24.376675
     -3.158158     13.207652     13.207652     26.415305
     -3.148148     14.067413     14.067413     28.134825
     -3.138138     15.073675     15.073675     30.147349
     -3.128128     16.641180     16.641180     33.282360
     -3.118118     19.083952     19.083952     38.167903
     -3.108108     22.426098     22.426098     44.852196
     -3.098098     26.320277     26.320277     52.640554
     -3.088088     30.120410     30.120410     60.240820
     -3.078078     33.086529     33.086529     66.173059
     -3.068068     34.635803     34.635803     69.271605
     -3.058058     34.528743     34.528743     69.057485
     -3.048048     32.910320     32.910320     65.820641
     -3.038038     30.199394     30.199394     60.398787
     -3.028028     26.896731     26.896731     53.793463
     -3.018018     23.417074     23.417074     46.834148
     -3.008008     20.023920     20.023920     40.047841
     -2.997998     16.876783     16.876783     33.753566
     -2.987988     14.135538     14.135538     28.271075
     -2.977978     12.043841     12.043841     24.087682
     -2.967968     10.938687     10.938687     21.877373
     -2.957958     11.180176     11.180176     22.360351
     -2.947948     13.033090     13.033090     26.066181
     -2.937938     16.546006     16.546006     33.092012
     -2.927928     21.470313     21.470313     42.940627
     -2.917918     27.251191     27.251191     54.502382
     -2.907908     33.107538     33.107538     66.215076
     -2.897898     38.194024     38.194024     76.388048
     -2.887888     41.806299     41.806299     83.612599
     -2.877878     43.562598     43.562598     87.125196
     -2.867868     43.490257     43.490257     86.980514
     -2.857858     41.975550     41.975550     83.951100
     -2.847848     39.592001     39.592001     79.184001
     -2.837838     36.879579     36.879579     73.759157
     -2.827828     34.172791     34.172791     68.345582
     -2.817818     31.551722     31.551722     63.103445
     -2.807808     28.926325     28.926325     57.852650
     -2.797798     26.194926     26.194926     52.389852
     -2.787788     23.382300     23.382300     46.764600
     -2.777778     20.680844     20.680844     41.361688
     -2.767768     18.378978     18.378978     36.757956
     -2.757758     16.727840     16.727840     33.455681
     -2.747748     15.831297     15.831297     31.662594
     -2.737738     15.625521     15.625521     31.251042
     -2.727728     15.954568     15.954568     31.909136
     -2.717718     16.684807     16.684807     33.369615
     -2.707708     17.775379     17.775379     35.550758
     -2.697698     19.253320     19.253320     38.506641
     -2.687688     21.112038     21.112038     42.224076
     -2.677678     23.212503     23.212503     46.425005
     -2.667668     25.272256     25.272256     50.544512
     -2.657658     26.969126     26.969126     53.938252
     -2.647648     28.102972     28.102972     56.205944
     -2.637638     28.710654     28.710654     57.421308
     -2.627628     29.054413     29.054413     58.108826
     -2.617618     29.485713     29.485713     58.971426
     -2.607608     30.265906     30.265906     60.531811
     -2.597598     31.445158     31.445158     62.890316
     -2.587588     32.852330     32.852330     65.704660
     -2.577578     34.173921     34.173921     68.347843
     -2.567568     35.057656     35.057656     70.115313
     -2.557558     35.190607     35.190607     70.381214
     -2.547548     34.347847     34.347847     68.695694
     -2.537538     32.437843     32.437843     64.875686
     -2.527528     29.558974     29.558974     59.117948
     -2.517518     26.044274     26.044274     52.088547
     -2.507508     22.448406     22.448406     44.896812
     -2.497497     19.447194     19.447194     38.894387
     -2.487487     17.666047     17.666047     35.332094
     -2.477477     17.497069     17.497069     34.994139
     -2.467467     18.978328     18.978328     37.956656
     -2.457457     21.787204     21.787204     43.574409
     -2.447447     25.355259     25.355259     50.710518
     -2.437437     29.063295     29.063295     58.126590
     -2.427427     32.440132     32.440132     64.880264
     -2.417417     35.281991     35.281991     70.563983
     -2.407407     37.638904     37.638904     75.277808
     -2.397397     39.673252     39.673252     79.346503
     -2.387387     41.459763     41.459763     82.919525
     -2.377377     42.833512     42.833512     85.667024
     -2.367367     43.377821     43.377821     86.755641
     -2.357357     42.576733     42.576733     85.153466
     -2.347347     40.067683     40.067683     80.135367
     -2.337337     35.869255     35.869255     71.738509
     -2.327327     30.466245     30.466245     60.932491
     -2.317317     24.708358     24.708358     49.416716
     -2.307307     19.574144     19.574144     39.148289
     -2.297297     15.909783     15.909783     31.819565
     -2.287287     14.244003     14.244003     28.488005
     -2.277277     14.723920     14.723920     29.447839
     -2.267267     17.155463     17.155463     34.310926
     -2.257257     21.100067     21.100067     42.200135
     -2.247247     25.981036     25.981036     51.962073
     -2.237237     31.172445     31.172445     62.344889
     -2.227227     36.063205     36.063205     72.126411
     -2.217217     40.101576     40.101576     80.203152
     -2.207207     42.831320     42.831320     85.662641
     -2.197197     43.931340     43.931340     87.862680
     -2.187187     43.264141     43.264141     86.528283
     -2.177177     40.923675     40.923675     81.847350
     -2.167167     37.255111     37.255111     74.510222
     -2.157157     32.812318     32.812318     65.624636
     -2.147147     28.237329     28.237329     56.474658
     -2.137137     24.088229     24.088229     48.176458
     -2.127127     20.683108     20.683108     41.366216
     -2.117117     18.035138     18.035138     36.070276
     -2.107107     15.913932     15.913932     31.827865
     -2.097097     14.002381     14.002381     28.004761
     -2.087087     12.068962     12.068962     24.137924
     -2.077077     10.074448     10.074448     20.148895
     -2.067067      8.175522      8.175522     16.351045
     -2.057057      6.643140      6.643140     13.286280
     -2.047047      5.745662      5.745662     11.491325
     -2.037037      5.644949      5.644949     11.289898
     -2.027027      6.332345      6.332345     12.664689
     -2.017017      7.613018      7.613018     15.226036
     -2.007007      9.140067      9.140067     18.280135
     -1.996997     10.496163     10.496163     20.992327
     -1.986987     11.308846     11.308846     22.617691
     -1.976977     11.367020     11.367020     22.734040
     -1.966967     10.695333     10.695333     21.390667
     -1.956957      9.553786      9.553786     19.107573
     -1.946947      8.360235      8.360235     16.720471
     -1.936937      7.565503      7.565503     15.131006
     -1.926927      7.525931      7.525931     15.051863
     -1.916917      8.411526      8.411526     16.823053
     -1.906907     10.169157     10.169157     20.338315
     -1.896897     12.542294     12.542294     25.084588
     -1.886887     15.136870     15.136870     30.273740
     -1.876877     17.515598     17.515598     35.031195
     -1.866867     19.298717     19.298717     38.597435
     -1.856857     20.248594     20.248594     40.497188
     -1.846847     20.319200     20.319200     40.638399
     -1.836837     19.657564     19.657564     39.315128
     -1.826827     18.552037     18.552037     37.104074
     -1.816817     17.334699     17.334699     34.669399
     -1.806807     16.264248     16.264248     32.528496
     -1.796797     15.433390     15.433390     30.866779
     -1.786787     14.745099     14.745099     29.490198
     -1.776777     13.974916     13.974916     27.949833
     -1.766767     12.892105     12.892105     25.784210
     -1.756757     11.379023     11.379023     22.758045
     -1.746747      9.489931      9.489931     18.979862
     -1.736737      7.427528      7.427528     14.855055
     -1.726727      5.462117      5.462117     10.924234
     -1.716717      3.843798      3.843798      7.687596
     -1.706707      2.749392      2.749392      5.498784
     -1.696697      2.274576      2.274576      4.549152
     -1.686687      2.451568      2.451568      4.903137
     -1.676677      3.262138      3.262138      6.524277
     -1.666667      4.627915      4.627915      9.255830
     -1.656657      6.384739      6.384739     12.769478
     -1.646647      8.268637      8.268637     16.537273
     -1.636637      9.943708      9.943708     19.887417
     -1.626627     11.082622     11.082622     22.165244
