# EIG2DOS: Utility for SIESTA to obtain the electronic density of states
#  E. Artacho, Apr 1999, A. Garcia, Apr 2012
#  Nick R. Papior, Feb 2017
# ------------------------------------------
# Eigenvalues calculated from a non-polarized calculation
# Eigenvalues read from siesta.EIG
# Kpoint weights read from siesta.KP
# Using smearing parameter:   0.0500
# Using 1000 points in the energy range
# Selected bands: 1 to: 2981
# Emin, Emax in file for selected band(s):    -27.0661874    218.3402270
# Nbands, Nspin, Nk   =   2981     1     1
# E_F                 =    -4.2687 eV --> (shifted to ZERO)
# Broadening          =     0.0500 eV
#
#        E            N(up)  (=)   N(down)         Ntot
     -5.000000     36.200139     36.200139     72.400279
     -4.989990     39.196983     39.196983     78.393965
     -4.979980     41.591058     41.591058     83.182117
     -4.969970     42.958802     42.958802     85.917604
     -4.959960     43.047991     43.047991     86.095982
     -4.949950     41.836911     41.836911     83.673822
     -4.939940     39.541974     39.541974     79.083948
     -4.929930     36.585744     36.585744     73.171488
     -4.919920     33.546233     33.546233     67.092465
     -4.909910     31.098230     31.098230     62.196459
     -4.899900     29.935361     29.935361     59.870721
     -4.889890     30.647765     30.647765     61.295530
     -4.879880     33.546619     33.546619     67.093238
     -4.869870     38.476288     38.476288     76.952576
     -4.859860     44.708104     44.708104     89.416208
     -4.849850     51.017620     51.017620    102.035241
     -4.839840     55.980287     55.980287    111.960573
     -4.829830     58.402927     58.402927    116.805854
     -4.819820     57.713070     57.713070    115.426140
     -4.809810     54.126662     54.126662    108.253323
     -4.799800     48.519854     48.519854     97.039709
     -4.789790     42.079850     42.079850     84.159699
     -4.779780     35.908993     35.908993     71.817985
     -4.769770     30.749329     30.749329     61.498657
     -4.759760     26.901691     26.901691     53.803382
     -4.749750     24.306298     24.306298     48.612596
     -4.739740     22.694852     22.694852     45.389705
     -4.729730     21.731161     21.731161     43.462321
     -4.719720     21.098970     21.098970     42.197941
     -4.709710     20.536314     20.536314     41.072628
     -4.699700     19.838844     19.838844     39.677688
     -4.689690     18.861256     18.861256     37.722511
     -4.679680     17.539090     17.539090     35.078180
     -4.669670     15.934562     15.934562     31.869124
     -4.659660     14.286340     14.286340     28.572680
     -4.649650     13.027707     13.027707     26.055414
     -4.639640     12.740581     12.740581     25.481162
     -4.629630     14.033234     14.033234     28.066469
     -4.619620     17.357876     17.357876     34.715752
     -4.609610     22.812792     22.812792     45.625584
     -4.599600     29.997320     29.997320     59.994641
     -4.589590     37.996026     37.996026     75.992052
     -4.579580     45.543786     45.543786     91.087571
     -4.569570     51.358134     51.358134    102.716269
     -4.559560     54.540146     54.540146    109.080292
     -4.549550     54.888426     54.888426    109.776852
     -4.539540     52.986009     52.986009    105.972018
     -4.529530     50.009934     50.009934    100.019868
     -4.519520     47.332544     47.332544     94.665088
     -4.509510     46.068565     46.068565     92.137130
     -4.499499     46.733078     46.733078     93.466157
     -4.489489     49.117571     49.117571     98.235142
     -4.479479     52.401835     52.401835    104.803670
     -4.469469     55.440213     55.440213    110.880426
     -4.459459     57.116113     57.116113    114.232225
     -4.449449     56.653441     56.653441    113.306882
     -4.439439     53.800984     53.800984    107.601967
     -4.429429     48.854742     48.854742     97.709483
     -4.419419     42.538070     42.538070     85.076140
     -4.409409     35.799663     35.799663     71.599326
     -4.399399     29.598895     29.598895     59.197790
     -4.389389     24.727863     24.727863     49.455726
     -4.379379     21.689616     21.689616     43.379233
     -4.369369     20.635196     20.635196     41.270392
     -4.359359     21.363371     21.363371     42.726742
     -4.349349     23.391218     23.391218     46.782436
     -4.339339     26.092549     26.092549     52.185099
     -4.329329     28.873604     28.873604     57.747207
     -4.319319     31.330466     31.330466     62.660932
     -4.309309     33.332382     33.332382     66.664764
     -4.299299     35.003849     35.003849     70.007699
     -4.289289     36.618733     36.618733     73.237465
     -4.279279     38.448278     38.448278     76.896556
     -4.269269     40.612454     40.612454     81.224909
     -4.259259     42.978934     42.978934     85.957869
     -4.249249     45.146813     45.146813     90.293627
     -4.239239     46.539090     46.539090     93.078180
     -4.229229     46.595411     46.595411     93.190821
     -4.219219     45.004587     45.004587     90.009174
     -4.209209     41.873796     41.873796     83.747591
     -4.199199     37.738981     37.738981     75.477963
     -4.189189     33.392279     33.392279     66.784559
     -4.179179     29.600913     29.600913     59.201825
     -4.169169     26.853726     26.853726     53.707453
     -4.159159     25.254278     25.254278     50.508556
     -4.149149     24.596052     24.596052     49.192103
     -4.139139     24.560240     24.560240     49.120480
     -4.129129     24.922585     24.922585     49.845170
     -4.119119     25.662572     25.662572     51.325143
     -4.109109     26.922702     26.922702     53.845405
     -4.099099     28.840599     28.840599     57.681198
     -4.089089     31.343944     31.343944     62.687888
     -4.079079     34.029089     34.029089     68.058179
     -4.069069     36.215045     36.215045     72.430089
     -4.059059     37.176689     37.176689     74.353379
     -4.049049     36.455357     36.455357     72.910713
     -4.039039     34.087271     34.087271     68.174541
     -4.029029     30.625723     30.625723     61.251445
     -4.019019     26.945628     26.945628     53.891256
     -4.009009     23.937628     23.937628     47.875255
     -3.998999     22.246907     22.246907     44.493813
     -3.988989     22.164140     22.164140     44.328280
     -3.978979     23.673699     23.673699     47.347398
     -3.968969     26.580225     26.580225     53.160450
     -3.958959     30.619134     30.619134     61.238268
     -3.948949     35.505251     35.505251     71.010503
     -3.938939     40.938150     40.938150     81.876300
     -3.928929     46.611273     46.611273     93.222547
     -3.918919     52.248895     52.248895    104.497789
     -3.908909     57.648327     57.648327    115.296654
     -3.898899     62.679775     62.679775    125.359549
     -3.888889     67.217313     67.217313    134.434626
     -3.878879     71.027724     71.027724    142.055449
     -3.868869     73.689486     73.689486    147.378972
     -3.858859     74.616761     74.616761    149.233522
     -3.848849     73.215271     73.215271    146.430543
     -3.838839     69.123150     69.123150    138.246300
     -3.828829     62.432352     62.432352    124.864704
     -3.818819     53.780157     53.780157    107.560315
     -3.808809     44.252743     44.252743     88.505485
     -3.798799     35.126643     35.126643     70.253286
     -3.788789     27.543792     27.543792     55.087584
     -3.778779     22.236849     22.236849     44.473699
     -3.768769     19.389900     19.389900     38.779800
     -3.758759     18.660451     18.660451     37.320902
     -3.748749     19.334585     19.334585     38.669170
     -3.738739     20.557273     20.557273     41.114545
     -3.728729     21.574032     21.574032     43.148064
     -3.718719     21.928145     21.928145     43.856290
     -3.708709     21.570665     21.570665     43.141329
     -3.698699     20.856584     20.856584     41.713168
     -3.688689     20.422256     20.422256     40.844513
     -3.678679     20.968317     20.968317     41.936633
     -3.668669     23.005009     23.005009     46.010018
     -3.658659     26.641120     26.641120     53.282241
     -3.648649     31.497022     31.497022     62.994044
     -3.638639     36.785484     36.785484     73.570968
     -3.628629     41.538153     41.538153     83.076306
     -3.618619     44.890757     44.890757     89.781515
     -3.608609     46.314287     46.314287     92.628575
     -3.598599     45.711222     45.711222     91.422443
     -3.588589     43.366076     43.366076     86.732153
     -3.578579     39.802576     39.802576     79.605152
     -3.568569     35.619329     35.619329     71.238658
     -3.558559     31.353254     31.353254     62.706508
     -3.548549     27.387056     27.387056     54.774112
     -3.538539     23.902603     23.902603     47.805206
     -3.528529     20.885719     20.885719     41.771438
     -3.518519     18.187719     18.187719     36.375439
     -3.508509     15.630366     15.630366     31.260732
     -3.498498     13.114950     13.114950     26.229900
     -3.488488     10.687558     10.687558     21.375116
     -3.478478      8.532951      8.532951     17.065902
     -3.468468      6.905318      6.905318     13.810635
     -3.458458      6.030535      6.030535     12.061070
     -3.448448      6.018194      6.018194     12.036388
     -3.438438      6.809478      6.809478     13.618956
     -3.428428      8.173932      8.173932     16.347864
     -3.418418      9.759965      9.759965     19.519930
     -3.408408     11.194079     11.194079     22.388158
     -3.398398     12.205735     12.205735     24.411470
     -3.388388     12.734864     12.734864     25.469727
     -3.378378     12.974235     12.974235     25.948470
     -3.368368     13.320708     13.320708     26.641415
     -3.358358     14.249379     14.249379     28.498758
     -3.348348     16.158194     16.158194     32.316388
     -3.338338     19.236321     19.236321     38.472641
     -3.328328     23.388053     23.388053     46.776106
     -3.318318     28.217033     28.217033     56.434066
     -3.308308     33.065720     33.065720     66.131439
     -3.298298     37.113083     37.113083     74.226166
     -3.288288     39.536701     39.536701     79.073402
     -3.278278     39.721817     39.721817     79.443635
     -3.268268     37.456508     37.456508     74.913017
     -3.258258     33.026220     33.026220     66.052439
     -3.248248     27.147554     27.147554     54.295108
     -3.238238     20.755523     20.755523     41.511046
     -3.228228     14.733552     14.733552     29.467105
     -3.218218      9.699805      9.699805     19.399610
     -3.208208      5.923484      5.923484     11.846968
     -3.198198      3.373168      3.373168      6.746336
     -3.188188      1.843749      1.843749      3.687498
     -3.178178      1.095394      1.095394      2.190789
     -3.168168      0.959614      0.959614      1.919228
     -3.158158      1.397841      1.397841      2.795682
     -3.148148      2.515613      2.515613      5.031226
     -3.138138      4.535940      4.535940      9.071881
     -3.128128      7.729104      7.729104     15.458209
     -3.118118     12.297777     12.297777     24.595554
     -3.108108     18.234552     18.234552     36.469104
     -3.098098     25.198388     25.198388     50.396777
     -3.088088     32.477259     32.477259     64.954519
     -3.078078     39.092083     39.092083     78.184166
     -3.068068     44.041818     44.041818     88.083636
     -3.058058     46.611645     46.611645     93.223290
     -3.048048     46.612151     46.612151     93.224302
     -3.038038     44.431231     44.431231     88.862462
     -3.028028     40.866639     40.866639     81.733278
     -3.018018     36.818996     36.818996     73.637992
     -3.008008     32.993711     32.993711     65.987422
     -2.997998     29.744442     29.744442     59.488885
     -2.987988     27.105782     27.105782     54.211564
     -2.977978     24.964803     24.964803     49.929606
     -2.967968     23.263521     23.263521     46.527042
     -2.957958     22.126539     22.126539     44.253077
     -2.947948     21.855634     21.855634     43.711268
     -2.937938     22.797593     22.797593     45.595186
     -2.927928     25.147772     25.147772     50.295543
     -2.917918     28.781523     28.781523     57.563047
     -2.907908     33.197827     33.197827     66.395653
     -2.897898     37.614546     37.614546     75.229092
     -2.887888     41.188759     41.188759     82.377519
     -2.877878     43.277082     43.277082     86.554163
     -2.867868     43.628477     43.628477     87.256953
     -2.857858     42.428818     42.428818     84.857636
     -2.847848     40.181758     40.181758     80.363516
     -2.837838     37.483839     37.483839     74.967677
     -2.827828     34.797641     34.797641     69.595283
     -2.817818     32.322416     32.322416     64.644831
     -2.807808     30.009173     30.009173     60.018347
     -2.797798     27.693588     27.693588     55.387177
     -2.787788     25.263264     25.263264     50.526528
     -2.777778     22.765492     22.765492     45.530983
     -2.767768     20.402117     20.402117     40.804234
     -2.757758     18.426246     18.426246     36.852493
     -2.747748     17.012258     17.012258     34.024517
     -2.737738     16.182843     16.182843     32.365686
     -2.727728     15.837027     15.837027     31.674054
     -2.717718     15.855468     15.855468     31.710937
     -2.707708     16.206636     16.206636     32.413272
     -2.697698     16.975348     16.975348     33.950697
     -2.687688     18.287379     18.287379     36.574759
     -2.677678     20.177493     20.177493     40.354986
     -2.667668     22.493309     22.493309     44.986617
     -2.657658     24.910177     24.910177     49.820355
     -2.647648     27.060678     27.060678     54.121356
     -2.637638     28.703630     28.703630     57.407259
     -2.627628     29.827287     29.827287     59.654574
     -2.617618     30.623171     30.623171     61.246343
     -2.607608     31.352156     31.352156     62.704312
     -2.597598     32.191222     32.191222     64.382443
     -2.587588     33.150091     33.150091     66.300182
     -2.577578     34.086500     34.086500     68.172999
     -2.567568     34.779939     34.779939     69.559879
     -2.557558     35.001206     35.001206     70.002412
     -2.547548     34.548999     34.548999     69.097998
     -2.537538     33.274488     33.274488     66.548977
     -2.527528     31.129346     31.129346     62.258692
     -2.517518     28.239026     28.239026     56.478053
     -2.507508     24.955625     24.955625     49.911249
     -2.497497     21.830965     21.830965     43.661930
     -2.487487     19.487684     19.487684     38.975368
     -2.477477     18.428101     18.428101     36.856202
     -2.467467     18.863925     18.863925     37.727850
     -2.457457     20.647152     20.647152     41.294303
     -2.447447     23.337353     23.337353     46.674705
     -2.437437     26.378273     26.378273     52.756546
     -2.427427     29.306800     29.306800     58.613599
     -2.417417     31.901678     31.901678     63.803356
     -2.407407     34.204984     34.204984     68.409968
     -2.397397     36.406552     36.406552     72.813104
     -2.387387     38.646165     38.646165     77.292329
     -2.377377     40.831309     40.831309     81.662618
     -2.367367     42.568218     42.568218     85.136437
     -2.357357     43.256551     43.256551     86.513102
     -2.347347     42.320598     42.320598     84.641195
     -2.337337     39.478003     39.478003     78.956006
     -2.327327     34.920223     34.920223     69.840446
     -2.317317     29.317251     29.317251     58.634501
     -2.307307     23.644180     23.644180     47.288360
     -2.297297     18.909658     18.909658     37.819317
     -2.287287     15.899271     15.899271     31.798542
     -2.277277     15.019332     15.019332     30.038664
     -2.267267     16.266781     16.266781     32.533562
     -2.257257     19.299353     19.299353     38.598706
     -2.247247     23.558398     23.558398     47.116796
     -2.237237     28.399862     28.399862     56.799724
     -2.227227     33.201627     33.201627     66.403253
     -2.217217     37.429430     37.429430     74.858859
     -2.207207     40.660018     40.660018     81.320037
     -2.197197     42.579065     42.579065     85.158130
     -2.187187     42.983561     42.983561     85.967121
     -2.177177     41.811055     41.811055     83.622110
     -2.167167     39.189035     39.189035     78.378069
     -2.157157     35.464490     35.464490     70.928980
     -2.147147     31.164881     31.164881     62.329761
     -2.137137     26.873186     26.873186     53.746372
     -2.127127     23.056388     23.056388     46.112776
     -2.117117     19.928387     19.928387     39.856773
     -2.107107     17.420247     17.420247     34.840495
     -2.097097     15.273204     15.273204     30.546408
     -2.087087     13.200772     13.200772     26.401545
     -2.077077     11.032305     11.032305     22.064611
     -2.067067      8.771186      8.771186     17.542372
     -2.057057      6.557295      6.557295     13.114591
     -2.047047      4.575071      4.575071      9.150141
     -2.037037      2.965494      2.965494      5.930988
     -2.027027      1.781403      1.781403      3.562806
     -2.017017      0.991854      0.991854      1.983708
     -2.007007      0.516558      0.516558      1.033117
     -1.996997      0.265908      0.265908      0.531816
     -1.986987      0.170981      0.170981      0.341961
     -1.976977      0.200064      0.200064      0.400128
     -1.966967      0.365257      0.365257      0.730514
     -1.956957      0.722663      0.722663      1.445326
     -1.946947      1.365411      1.365411      2.730822
     -1.936937      2.405100      2.405100      4.810200
     -1.926927      3.938433      3.938433      7.876865
     -1.916917      6.003092      6.003092     12.006185
     -1.906907      8.536938      8.536938     17.073876
     -1.896897     11.360162     11.360162     22.720325
     -1.886887     14.194892     14.194892     28.389785
     -1.876877     16.721446     16.721446     33.442892
     -1.866867     18.653930     18.653930     37.307861
     -1.856857     19.810246     19.810246     39.620491
     -1.846847     20.155568     20.155568     40.311135
     -1.836837     19.807717     19.807717     39.615433
     -1.826827     19.000984     19.000984     38.001967
     -1.816817     18.013170     18.013170     36.026340
     -1.806807     17.074186     17.074186     34.148373
     -1.796797     16.291016     16.291016     32.582031
     -1.786787     15.628421     15.628421     31.256841
     -1.776777     14.963519     14.963519     29.927037
     -1.766767     14.190321     14.190321     28.380642
     -1.756757     13.314454     13.314454     26.628907
     -1.746747     12.477466     12.477466     24.954932
     -1.736737     11.890344     11.890344     23.780687
     -1.726727     11.712829     11.712829     23.425658
     -1.716717     11.951443     11.951443     23.902885
     -1.706707     12.440455     12.440455     24.880911
     -1.696697     12.921233     12.921233     25.842465
     -1.686687     13.175956     13.175956     26.351913
     -1.676677     13.137800     13.137800     26.275600
     -1.666667     12.912138     12.912138     25.824275
     -1.656657     12.695721     12.695721     25.391443
     -1.646647     12.641867     12.641867     25.283734
     -1.636637     12.752515     12.752515     25.505029
     -1.626627     12.862550     12.862550     25.725100
