# EIG2DOS: Utility for SIESTA to obtain the electronic density of states
#  E. Artacho, Apr 1999, A. Garcia, Apr 2012
#  Nick R. Papior, Feb 2017
# ------------------------------------------
# Eigenvalues calculated from a non-polarized calculation
# Eigenvalues read from siesta.EIG
# Kpoint weights read from siesta.KP
# Using smearing parameter:   0.0500
# Using 1000 points in the energy range
# Selected bands: 1 to: 2981
# Emin, Emax in file for selected band(s):    -27.1341956    218.3746030
# Nbands, Nspin, Nk   =   2981     1     1
# E_F                 =    -4.2268 eV --> (shifted to ZERO)
# Broadening          =     0.0500 eV
#
#        E            N(up)  (=)   N(down)         Ntot
     -5.000000     33.189365     33.189365     66.378731
     -4.989990     37.719873     37.719873     75.439746
     -4.979980     41.740082     41.740082     83.480165
     -4.969970     44.582638     44.582638     89.165275
     -4.959960     45.737780     45.737780     91.475559
     -4.949950     45.020459     45.020459     90.040919
     -4.939940     42.637561     42.637561     85.275122
     -4.929930     39.144068     39.144068     78.288135
     -4.919920     35.325767     35.325767     70.651534
     -4.909910     32.058795     32.058795     64.117591
     -4.899900     30.171778     30.171778     60.343555
     -4.889890     30.304105     30.304105     60.608210
     -4.879880     32.750285     32.750285     65.500570
     -4.869870     37.315891     37.315891     74.631781
     -4.859860     43.256205     43.256205     86.512411
     -4.849850     49.376176     49.376176     98.752353
     -4.839840     54.313538     54.313538    108.627076
     -4.829830     56.929403     56.929403    113.858806
     -4.819820     56.654238     56.654238    113.308476
     -4.809810     53.638777     53.638777    107.277554
     -4.799800     48.646982     48.646982     97.293963
     -4.789790     42.751542     42.751542     85.503084
     -4.779780     36.977634     36.977634     73.955268
     -4.769770     32.041473     32.041473     64.082946
     -4.759760     28.257864     28.257864     56.515728
     -4.749750     25.599405     25.599405     51.198811
     -4.739740     23.832925     23.832925     47.665849
     -4.729730     22.654651     22.654651     45.309301
     -4.719720     21.777777     21.777777     43.555553
     -4.709710     20.965960     20.965960     41.931919
     -4.699700     20.034896     20.034896     40.069792
     -4.689690     18.854413     18.854413     37.708826
     -4.679680     17.374852     17.374852     34.749705
     -4.669670     15.678353     15.678353     31.356706
     -4.659660     14.030066     14.030066     28.060133
     -4.649650     12.891663     12.891663     25.783327
     -4.639640     12.867395     12.867395     25.734790
     -4.629630     14.576125     14.576125     29.152250
     -4.619620     18.470137     18.470137     36.940275
     -4.609610     24.646059     24.646059     49.292118
     -4.599600     32.711223     32.711223     65.422446
     -4.589590     41.771882     41.771882     83.543764
     -4.579580     50.584342     50.584342    101.168685
     -4.569570     57.852517     57.852517    115.705034
     -4.559560     62.585504     62.585504    125.171008
     -4.549550     64.385107     64.385107    128.770214
     -4.539540     63.546722     63.546722    127.093443
     -4.529530     60.927428     60.927428    121.854856
     -4.519520     57.629813     57.629813    115.259625
     -4.509510     54.624339     54.624339    109.248677
     -4.499499     52.454282     52.454282    104.908564
     -4.489489     51.127517     51.127517    102.255034
     -4.479479     50.217329     50.217329    100.434657
     -4.469469     49.107282     49.107282     98.214565
     -4.459459     47.263279     47.263279     94.526557
     -4.449449     44.422155     44.422155     88.844310
     -4.439439     40.642781     40.642781     81.285561
     -4.429429     36.238041     36.238041     72.476083
     -4.419419     31.653893     31.653893     63.307786
     -4.409409     27.362287     27.362287     54.724574
     -4.399399     23.796722     23.796722     47.593444
     -4.389389     21.315173     21.315173     42.630346
     -4.379379     20.158653     20.158653     40.317307
     -4.369369     20.394442     20.394442     40.788883
     -4.359359     21.869893     21.869893     43.739787
     -4.349349     24.221257     24.221257     48.442514
     -4.339339     26.962569     26.962569     53.925138
     -4.329329     29.633981     29.633981     59.267961
     -4.319319     31.949159     31.949159     63.898318
     -4.309309     33.875075     33.875075     67.750151
     -4.299299     35.607057     35.607057     71.214115
     -4.289289     37.447245     37.447245     74.894490
     -4.279279     39.631747     39.631747     79.263494
     -4.269269     42.169770     42.169770     84.339540
     -4.259259     44.758218     44.758218     89.516435
     -4.249249     46.819034     46.819034     93.638068
     -4.239239     47.669683     47.669683     95.339365
     -4.229229     46.780553     46.780553     93.561107
     -4.219219     44.018145     44.018145     88.036290
     -4.209209     39.756893     39.756893     79.513786
     -4.199199     34.790557     34.790557     69.581114
     -4.189189     30.070218     30.070218     60.140435
     -4.179179     26.385771     26.385771     52.771541
     -4.169169     24.135499     24.135499     48.270998
     -4.159159     23.277969     23.277969     46.555937
     -4.149149     23.465588     23.465588     46.931177
     -4.139139     24.275093     24.275093     48.550185
     -4.129129     25.416301     25.416301     50.832602
     -4.119119     26.822946     26.822946     53.645893
     -4.109109     28.590141     28.590141     57.180281
     -4.099099     30.796600     30.796600     61.593201
     -4.089089     33.309846     33.309846     66.619691
     -4.079079     35.692032     35.692032     71.384064
     -4.069069     37.283574     37.283574     74.567148
     -4.059059     37.449374     37.449374     74.898747
     -4.049049     35.874402     35.874402     71.748805
     -4.039039     32.754144     32.754144     65.508288
     -4.029029     28.774703     28.774703     57.549405
     -4.019019     24.890690     24.890690     49.781381
     -4.009009     22.014695     22.014695     44.029390
     -3.998999     20.765159     20.765159     41.530319
     -3.988989     21.367285     21.367285     42.734570
     -3.978979     23.707403     23.707403     47.414807
     -3.968969     27.468247     27.468247     54.936495
     -3.958959     32.259354     32.259354     64.518708
     -3.948949     37.696450     37.696450     75.392901
     -3.938939     43.435817     43.435817     86.871635
     -3.928929     49.193486     49.193486     98.386973
     -3.918919     54.763570     54.763570    109.527141
     -3.908909     60.018926     60.018926    120.037853
     -3.898899     64.866619     64.866619    129.733239
     -3.888889     69.156344     69.156344    138.312688
     -3.878879     72.584079     72.584079    145.168157
     -3.868869     74.659188     74.659188    149.318376
     -3.858859     74.785455     74.785455    149.570910
     -3.848849     72.450247     72.450247    144.900494
     -3.838839     67.453055     67.453055    134.906110
     -3.828829     60.072219     60.072219    120.144437
     -3.818819     51.086614     51.086614    102.173227
     -3.808809     41.628907     41.628907     83.257813
     -3.798799     32.917614     32.917614     65.835228
     -3.788789     25.961677     25.961677     51.923353
     -3.778779     21.334473     21.334473     42.668945
     -3.768769     19.079687     19.079687     38.159375
     -3.758759     18.761590     18.761590     37.523179
     -3.748749     19.630092     19.630092     39.260184
     -3.738739     20.847748     20.847748     41.695496
     -3.728729     21.720244     21.720244     43.440487
     -3.718719     21.877326     21.877326     43.754652
     -3.708709     21.362568     21.362568     42.725136
     -3.698699     20.607261     20.607261     41.214523
     -3.688689     20.287523     20.287523     40.575046
     -3.678679     21.094474     21.094474     42.188948
     -3.668669     23.479679     23.479679     46.959358
     -3.658659     27.459366     27.459366     54.918733
     -3.648649     32.554922     32.554922     65.109844
     -3.638639     37.904593     37.904593     75.809186
     -3.628629     42.512733     42.512733     85.025467
     -3.618619     45.540835     45.540835     91.081671
     -3.608609     46.526506     46.526506     93.053011
     -3.598599     45.456639     45.456639     90.913279
     -3.588589     42.694686     42.694686     85.389371
     -3.578579     38.821903     38.821903     77.643807
     -3.568569     34.466092     34.466092     68.932184
     -3.558559     30.164743     30.164743     60.329485
     -3.548549     26.276739     26.276739     52.553479
     -3.538539     22.943919     22.943919     45.887838
     -3.528529     20.107434     20.107434     40.214868
     -3.518519     17.581448     17.581448     35.162896
     -3.508509     15.166399     15.166399     30.332799
     -3.498498     12.759327     12.759327     25.518655
     -3.488488     10.413809     10.413809     20.827619
     -3.478478      8.325740      8.325740     16.651479
     -3.468468      6.757610      6.757610     13.515220
     -3.458458      5.938258      5.938258     11.876515
     -3.448448      5.975977      5.975977     11.951954
     -3.438438      6.809289      6.809289     13.618579
     -3.428428      8.206735      8.206735     16.413469
     -3.418418      9.819609      9.819609     19.639218
     -3.408408     11.282104     11.282104     22.564209
     -3.398398     12.335239     12.335239     24.670477
     -3.388388     12.931264     12.931264     25.862527
     -3.378378     13.271401     13.271401     26.542802
     -3.368368     13.752709     13.752709     27.505417
     -3.358358     14.840173     14.840173     29.680346
     -3.348348     16.912340     16.912340     33.824679
     -3.338338     20.132461     20.132461     40.264922
     -3.328328     24.374818     24.374818     48.749636
     -3.318318     29.210879     29.210879     58.421757
     -3.308308     33.953305     33.953305     67.906609
     -3.298298     37.764408     37.764408     75.528816
     -3.288288     39.834266     39.834266     79.668532
     -3.278278     39.603232     39.603232     79.206464
     -3.268268     36.957818     36.957818     73.915636
     -3.258258     32.309310     32.309310     64.618620
     -3.248248     26.501581     26.501581     53.003162
     -3.238238     20.574062     20.574062     41.148125
     -3.228228     15.475343     15.475343     30.950687
     -3.218218     11.836518     11.836518     23.673037
     -3.208208      9.869793      9.869793     19.739587
     -3.198198      9.395889      9.395889     18.791777
     -3.188188      9.963925      9.963925     19.927849
     -3.178178     11.019747     11.019747     22.039494
     -3.168168     12.084789     12.084789     24.169579
     -3.158158     12.908170     12.908170     25.816341
     -3.148148     13.550259     13.550259     27.100519
     -3.138138     14.362287     14.362287     28.724573
     -3.128128     15.854815     15.854815     31.709629
     -3.118118     18.490384     18.490384     36.980768
     -3.108108     22.471055     22.471055     44.942110
     -3.098098     27.600540     27.600540     55.201079
     -3.088088     33.277518     33.277518     66.555037
     -3.078078     38.630167     38.630167     77.260334
     -3.068068     42.748922     42.748922     85.497845
     -3.058058     44.935201     44.935201     89.870403
     -3.048048     44.875944     44.875944     89.751889
     -3.038038     42.685010     42.685010     85.370021
     -3.028028     38.811582     38.811582     77.623164
     -3.018018     33.873640     33.873640     67.747280
     -3.008008     28.499134     28.499134     56.998268
     -2.997998     23.235917     23.235917     46.471833
     -2.987988     18.540696     18.540696     37.081392
     -2.977978     14.811524     14.811524     29.623048
     -2.967968     12.413302     12.413302     24.826604
     -2.957958     11.662238     11.662238     23.324476
     -2.947948     12.765097     12.765097     25.530193
     -2.937938     15.734341     15.734341     31.468682
     -2.927928     20.314265     20.314265     40.628531
     -2.917918     25.956667     25.956667     51.913335
     -2.907908     31.876579     31.876579     63.753158
     -2.897898     37.195395     37.195395     74.390789
     -2.887888     41.142398     41.142398     82.284796
     -2.877878     43.250356     43.250356     86.500711
     -2.867868     43.468012     43.468012     86.936024
     -2.857858     42.136441     42.136441     84.272882
     -2.847848     39.832050     39.832050     79.664101
     -2.837838     37.140738     37.140738     74.281475
     -2.827828     34.461933     34.461933     68.923867
     -2.817818     31.926729     31.926729     63.853459
     -2.807808     29.456011     29.456011     58.912022
     -2.797798     26.912902     26.912902     53.825804
     -2.787788     24.258151     24.258151     48.516303
     -2.777778     21.622523     21.622523     43.245047
     -2.767768     19.263054     19.263054     38.526108
     -2.757758     17.439241     17.439241     34.878482
     -2.747748     16.290583     16.290583     32.581165
     -2.737738     15.791750     15.791750     31.583501
     -2.727728     15.809176     15.809176     31.618353
     -2.717718     16.215287     16.215287     32.430573
     -2.707708     16.977518     16.977518     33.955036
     -2.697698     18.156138     18.156138     36.312276
     -2.687688     19.809224     19.809224     39.618448
     -2.677678     21.872677     21.872677     43.745355
     -2.667668     24.108169     24.108169     48.216338
     -2.657658     26.170773     26.170773     52.341545
     -2.647648     27.765737     27.765737     55.531474
     -2.637638     28.797747     28.797747     57.595494
     -2.627628     29.415231     29.415231     58.830463
     -2.617618     29.919653     29.919653     59.839305
     -2.607608     30.597102     30.597102     61.194204
     -2.597598     31.573734     31.573734     63.147468
     -2.587588     32.768602     32.768602     65.537204
     -2.577578     33.944877     33.944877     67.889754
     -2.567568     34.802815     34.802815     69.605631
     -2.557558     35.055885     35.055885     70.111770
     -2.547548     34.474863     34.474863     68.949726
     -2.537538     32.925644     32.925644     65.851288
     -2.527528     30.425879     30.425879     60.851759
     -2.517518     27.207359     27.207359     54.414717
     -2.507508     23.735353     23.735353     47.470706
     -2.497497     20.639818     20.639818     41.279636
     -2.487487     18.558064     18.558064     37.116127
     -2.477477     17.942558     17.942558     35.885115
     -2.467467     18.914750     18.914750     37.829500
     -2.457457     21.230900     21.230900     42.461799
     -2.447447     24.378770     24.378770     48.757541
     -2.437437     27.767791     27.767791     55.535582
     -2.427427     30.933720     30.933720     61.867440
     -2.417417     33.669738     33.669738     67.339476
     -2.407407     36.025518     36.025518     72.051037
     -2.397397     38.174791     38.174791     76.349582
     -2.387387     40.215690     40.215690     80.431380
     -2.377377     42.006504     42.006504     84.013009
     -2.367367     43.130323     43.130323     86.260646
     -2.357357     43.023925     43.023925     86.047850
     -2.347347     41.223068     41.223068     82.446137
     -2.337337     37.610627     37.610627     75.221253
     -2.327327     32.545394     32.545394     65.090788
     -2.317317     26.807214     26.807214     53.614428
     -2.307307     21.385727     21.385727     42.771454
     -2.297297     17.210432     17.210432     34.420863
     -2.287287     14.930561     14.930561     29.861122
     -2.277277     14.808908     14.808908     29.617816
     -2.267267     16.731877     16.731877     33.463755
     -2.257257     20.296475     20.296475     40.592950
     -2.247247     24.926238     24.926238     49.852476
     -2.237237     29.980729     29.980729     59.961458
     -2.227227     34.840185     34.840185     69.680369
     -2.217217     38.960190     38.960190     77.920381
     -2.207207     41.901835     41.901835     83.803671
     -2.197197     43.351620     43.351620     86.703240
     -2.187187     43.147623     43.147623     86.295246
     -2.177177     41.317385     41.317385     82.634771
     -2.167167     38.110151     38.110151     76.220303
     -2.157157     33.986976     33.986976     67.973952
     -2.147147     29.537584     29.537584     59.075167
     -2.137137     25.329846     25.329846     50.659692
     -2.127127     21.746393     21.746393     43.492786
     -2.117117     18.886531     18.886531     37.773062
     -2.107107     16.586204     16.586204     33.172407
     -2.097097     14.545723     14.545723     29.091446
     -2.087087     12.495978     12.495978     24.991956
     -2.077077     10.318278     10.318278     20.636556
     -2.067067      8.068474      8.068474     16.136949
     -2.057057      5.914486      5.914486     11.828973
     -2.047047      4.038429      4.038429      8.076859
     -2.037037      2.558782      2.558782      5.117564
     -2.027027      1.501599      1.501599      3.003199
     -2.017017      0.816849      0.816849      1.633697
     -2.007007      0.416917      0.416917      0.833834
     -1.996997      0.214379      0.214379      0.428757
     -1.986987      0.147308      0.147308      0.294615
     -1.976977      0.191854      0.191854      0.383707
     -1.966967      0.366962      0.366962      0.733924
     -1.956957      0.734631      0.734631      1.469262
     -1.946947      1.394394      1.394394      2.788788
     -1.936937      2.467274      2.467274      4.934549
     -1.926927      4.065996      4.065996      8.131991
     -1.916917      6.255394      6.255394     12.510789
     -1.906907      9.016197      9.016197     18.032394
     -1.896897     12.229267     12.229267     24.458534
     -1.886887     15.690472     15.690472     31.380943
     -1.876877     19.150586     19.150586     38.301171
     -1.866867     22.361052     22.361052     44.722104
     -1.856857     25.106245     25.106245     50.212490
     -1.846847     27.216643     27.216643     54.433285
     -1.836837     28.572328     28.572328     57.144656
     -1.826827     29.108383     29.108383     58.216766
     -1.816817     28.822160     28.822160     57.644321
     -1.806807     27.771295     27.771295     55.542591
     -1.796797     26.054822     26.054822     52.109643
     -1.786787     23.785831     23.785831     47.571662
     -1.776777     21.075522     21.075522     42.151045
     -1.766767     18.041063     18.041063     36.082127
     -1.756757     14.828301     14.828301     29.656602
     -1.746747     11.625016     11.625016     23.250032
     -1.736737      8.646221      8.646221     17.292442
     -1.726727      6.095296      6.095296     12.190592
     -1.716717      4.124030      4.124030      8.248059
     -1.706707      2.814999      2.814999      5.629998
     -1.696697      2.192084      2.192084      4.384167
     -1.686687      2.243963      2.243963      4.487925
     -1.676677      2.936609      2.936609      5.873219
     -1.666667      4.199861      4.199861      8.399722
     -1.656657      5.894204      5.894204     11.788407
     -1.646647      7.784034      7.784034     15.568068
     -1.636637      9.549320      9.549320     19.098641
     -1.626627     10.852124     10.852124     21.704247
