# EIG2DOS: Utility for SIESTA to obtain the electronic density of states
#  E. Artacho, Apr 1999, A. Garcia, Apr 2012
#  Nick R. Papior, Feb 2017
# ------------------------------------------
# Eigenvalues calculated from a non-polarized calculation
# Eigenvalues read from siesta.EIG
# Kpoint weights read from siesta.KP
# Using smearing parameter:   0.0500
# Using 1000 points in the energy range
# Selected bands: 1 to: 2981
# Emin, Emax in file for selected band(s):    -27.0873798    218.3219510
# Nbands, Nspin, Nk   =   2981     1     1
# E_F                 =    -4.2879 eV --> (shifted to ZERO)
# Broadening          =     0.0500 eV
#
#        E            N(up)  (=)   N(down)         Ntot
     -5.000000     45.980120     45.980120     91.960239
     -4.989990     48.924333     48.924333     97.848666
     -4.979980     50.384984     50.384984    100.769967
     -4.969970     50.286181     50.286181    100.572362
     -4.959960     48.740406     48.740406     97.480813
     -4.949950     46.012856     46.012856     92.025713
     -4.939940     42.479039     42.479039     84.958079
     -4.929930     38.595159     38.595159     77.190317
     -4.919920     34.886425     34.886425     69.772850
     -4.909910     31.939299     31.939299     63.878597
     -4.899900     30.367100     30.367100     60.734201
     -4.889890     30.715190     30.715190     61.430380
     -4.879880     33.295130     33.295130     66.590259
     -4.869870     37.988857     37.988857     75.977714
     -4.859860     44.119005     44.119005     88.238010
     -4.849850     50.494726     50.494726    100.989452
     -4.839840     55.681501     55.681501    111.363003
     -4.829830     58.426275     58.426275    116.852549
     -4.819820     58.065054     58.065054    116.130107
     -4.809810     54.724923     54.724923    109.449846
     -4.799800     49.228258     49.228258     98.456516
     -4.789790     42.758247     42.758247     85.516493
     -4.779780     36.455538     36.455538     72.911075
     -4.769770     31.121170     31.121170     62.242340
     -4.759760     27.112676     27.112676     54.225352
     -4.749750     24.409392     24.409392     48.818784
     -4.739740     22.758905     22.758905     45.517810
     -4.729730     21.819140     21.819140     43.638279
     -4.719720     21.251983     21.251983     42.503965
     -4.709710     20.766021     20.766021     41.532041
     -4.699700     20.128987     20.128987     40.257974
     -4.689690     19.175969     19.175969     38.351939
     -4.679680     17.832823     17.832823     35.665646
     -4.669670     16.158218     16.158218     32.316437
     -4.659660     14.387499     14.387499     28.774998
     -4.649650     12.947817     12.947817     25.895634
     -4.639640     12.415863     12.415863     24.831727
     -4.629630     13.406143     13.406143     26.812287
     -4.619620     16.401298     16.401298     32.802596
     -4.609610     21.560692     21.560692     43.121383
     -4.599600     28.566828     28.566828     57.133656
     -4.589590     36.582812     36.582812     73.165624
     -4.579580     44.379962     44.379962     88.759925
     -4.569570     50.639092     50.639092    101.278184
     -4.559560     54.345062     54.345062    108.690123
     -4.549550     55.126533     55.126533    110.253066
     -4.539540     53.390851     53.390851    106.781702
     -4.529530     50.182646     50.182646    100.365292
     -4.519520     46.817488     46.817488     93.634976
     -4.509510     44.441917     44.441917     88.883833
     -4.499499     43.695189     43.695189     87.390379
     -4.489489     44.588253     44.588253     89.176506
     -4.479479     46.609675     46.609675     93.219350
     -4.469469     48.973883     48.973883     97.947765
     -4.459459     50.888095     50.888095    101.776190
     -4.449449     51.740459     51.740459    103.480917
     -4.439439     51.177895     51.177895    102.355789
     -4.429429     49.104900     49.104900     98.209801
     -4.419419     45.658588     45.658588     91.317175
     -4.409409     41.192844     41.192844     82.385688
     -4.399399     36.259691     36.259691     72.519382
     -4.389389     31.547637     31.547637     63.095274
     -4.379379     27.750933     27.750933     55.501867
     -4.369369     25.392545     25.392545     50.785090
     -4.359359     24.670750     24.670750     49.341500
     -4.349349     25.406729     25.406729     50.813458
     -4.339339     27.128035     27.128035     54.256070
     -4.329329     29.255715     29.255715     58.511430
     -4.319319     31.312636     31.312636     62.625272
     -4.309309     33.065892     33.065892     66.131784
     -4.299299     34.554636     34.554636     69.109272
     -4.289289     36.008319     36.008319     72.016637
     -4.279279     37.698686     37.698686     75.397372
     -4.269269     39.780483     39.780483     79.560966
     -4.259259     42.170647     42.170647     84.341294
     -4.249249     44.507730     44.507730     89.015460
     -4.239239     46.221252     46.221252     92.442504
     -4.229229     46.710633     46.710633     93.421266
     -4.219219     45.581429     45.581429     91.162858
     -4.209209     42.838132     42.838132     85.676264
     -4.199199     38.929946     38.929946     77.859892
     -4.189189     34.609161     34.609161     69.218321
     -4.179179     30.661435     30.661435     61.322870
     -4.169169     27.639449     27.639449     55.278898
     -4.159159     25.726820     25.726820     51.453639
     -4.149149     24.782680     24.782680     49.565361
     -4.139139     24.520449     24.520449     49.040899
     -4.129129     24.713259     24.713259     49.426518
     -4.119119     25.317693     25.317693     50.635385
     -4.109109     26.455947     26.455947     52.911893
     -4.099099     28.267952     28.267952     56.535904
     -4.089089     30.712244     30.712244     61.424488
     -4.079079     33.430883     33.430883     66.861766
     -4.069069     35.775440     35.775440     71.550880
     -4.059059     37.013401     37.013401     74.026801
     -4.049049     36.630439     36.630439     73.260878
     -4.039039     34.576375     34.576375     69.152750
     -4.029029     31.322036     31.322036     62.644072
     -4.019019     27.696190     27.696190     55.392380
     -4.009009     24.592501     24.592501     49.185002
     -3.998999     22.697660     22.697660     45.395319
     -3.988989     22.358237     22.358237     44.716474
     -3.978979     23.606862     23.606862     47.213725
     -3.968969     26.278815     26.278815     52.557630
     -3.958959     30.124206     30.124206     60.248412
     -3.948949     34.862571     34.862571     69.725142
     -3.938939     40.191631     40.191631     80.383263
     -3.928929     45.796465     45.796465     91.592929
     -3.918919     51.387609     51.387609    102.775219
     -3.908909     56.749989     56.749989    113.499978
     -3.898899     61.754130     61.754130    123.508260
     -3.888889     66.296074     66.296074    132.592148
     -3.878879     70.184039     70.184039    140.368079
     -3.868869     73.040725     73.040725    146.081450
     -3.858859     74.301912     74.301912    148.603825
     -3.848849     73.351198     73.351198    146.702397
     -3.838839     69.756808     69.756808    139.513616
     -3.828829     63.510799     63.510799    127.021599
     -3.818819     55.153471     55.153471    110.306943
     -3.808809     45.710293     45.710293     91.420587
     -3.798799     36.452745     36.452745     72.905490
     -3.788789     28.572008     28.572008     57.144015
     -3.778779     22.885319     22.885319     45.770638
     -3.768769     19.669552     19.669552     39.339105
     -3.758759     18.658009     18.658009     37.316019
     -3.748749     19.178812     19.178812     38.357625
     -3.738739     20.379080     20.379080     40.758160
     -3.728729     21.470386     21.470386     42.940771
     -3.718719     21.937686     21.937686     43.875371
     -3.708709     21.666360     21.666360     43.332721
     -3.698699     20.957413     20.957413     41.914826
     -3.688689     20.421682     20.421682     40.843364
     -3.678679     20.772415     20.772415     41.544830
     -3.668669     22.568811     22.568811     45.137622
     -3.658659     25.990293     25.990293     51.980587
     -3.648649     30.725684     30.725684     61.451368
     -3.638639     36.029773     36.029773     72.059545
     -3.628629     40.935759     40.935759     81.871517
     -3.618619     44.542975     44.542975     89.085951
     -3.608609     46.264931     46.264931     92.529863
     -3.598599     45.947048     45.947048     91.894096
     -3.588589     43.832685     43.832685     87.665371
     -3.578579     40.424957     40.424957     80.849915
     -3.568569     36.319053     36.319053     72.638106
     -3.558559     32.060452     32.060452     64.120905
     -3.548549     28.048888     28.048888     56.097776
     -3.538539     24.488855     24.488855     48.977710
     -3.528529     21.389579     21.389579     42.779158
     -3.518519     18.619673     18.619673     37.239347
     -3.508509     16.006503     16.006503     32.013006
     -3.498498     13.444720     13.444720     26.889440
     -3.488488     10.966739     10.966739     21.933478
     -3.478478      8.744639      8.744639     17.489279
     -3.468468      7.027632      7.027632     14.055264
     -3.458458      6.047230      6.047230     12.094459
     -3.448448      5.928233      5.928233     11.856467
     -3.438438      6.632597      6.632597     13.265193
     -3.428428      7.950002      7.950002     15.900005
     -3.418418      9.540926      9.540926     19.081852
     -3.408408     11.029223     11.029223     22.058446
     -3.398398     12.124335     12.124335     24.248670
     -3.388388     12.732544     12.732544     25.465088
     -3.378378     13.008958     13.008958     26.017916
     -3.368368     13.320491     13.320491     26.640981
     -3.358358     14.129292     14.129292     28.258583
     -3.348348     15.841863     15.841863     31.683726
     -3.338338     18.677874     18.677874     37.355748
     -3.328328     22.591797     22.591797     45.183594
     -3.318318     27.251195     27.251195     54.502391
     -3.308308     32.063463     32.063463     64.126925
     -3.298298     36.252959     36.252959     72.505918
     -3.288288     39.000605     39.000605     78.001209
     -3.278278     39.640779     39.640779     79.281558
     -3.268268     37.865757     37.865757     75.731515
     -3.258258     33.851243     33.851243     67.702486
     -3.248248     28.229420     28.229420     56.458841
     -3.238238     21.904089     21.904089     43.808178
     -3.228228     15.784095     15.784095     31.568189
     -3.218218     10.550109     10.550109     21.100218
     -3.208208      6.541840      6.541840     13.083681
     -3.198198      3.783173      3.783173      7.566346
     -3.188188      2.100267      2.100267      4.200534
     -3.178178      1.265129      1.265129      2.530258
     -3.168168      1.112894      1.112894      2.225787
     -3.158158      1.610411      1.610411      3.220821
     -3.148148      2.873391      2.873391      5.746782
     -3.138138      5.132877      5.132877     10.265754
     -3.128128      8.649445      8.649445     17.298890
     -3.118118     13.580670     13.580670     27.161341
     -3.108108     19.831030     19.831030     39.662061
     -3.098098     26.943402     26.943402     53.886804
     -3.088088     34.103163     34.103163     68.206327
     -3.078078     40.296597     40.296597     80.593195
     -3.068068     44.594982     44.594982     89.189965
     -3.058058     46.457813     46.457813     92.915626
     -3.048048     45.914539     45.914539     91.829078
     -3.038038     43.527680     43.527680     87.055360
     -3.028028     40.146752     40.146752     80.293505
     -3.018018     36.572022     36.572022     73.144044
     -3.008008     33.292430     33.292430     66.584860
     -2.997998     30.415430     30.415430     60.830859
     -2.987988     27.798495     27.798495     55.596990
     -2.977978     25.288445     25.288445     50.576890
     -2.967968     22.931564     22.931564     45.863127
     -2.957958     21.048441     21.048441     42.096882
     -2.947948     20.144295     20.144295     40.288590
     -2.937938     20.703339     20.703339     41.406678
     -2.927928     22.961052     22.961052     45.922104
     -2.917918     26.750650     26.750650     53.501299
     -2.907908     31.487673     31.487673     62.975346
     -2.897898     36.304578     36.304578     72.609155
     -2.887888     40.291955     40.291955     80.583910
     -2.877878     42.761278     42.761278     85.522555
     -2.867868     43.431976     43.431976     86.863952
     -2.857858     42.472023     42.472023     84.944046
     -2.847848     40.379598     40.379598     80.759197
     -2.837838     37.760280     37.760280     75.520560
     -2.827828     35.098386     35.098386     70.196771
     -2.817818     32.619865     32.619865     65.239729
     -2.807808     30.296635     30.296635     60.593270
     -2.797798     27.971638     27.971638     55.943275
     -2.787788     25.526028     25.526028     51.052057
     -2.777778     22.994864     22.994864     45.989727
     -2.767768     20.572868     20.572868     41.145737
     -2.757758     18.517686     18.517686     37.035373
     -2.747748     17.017231     17.017231     34.034461
     -2.737738     16.106194     16.106194     32.212388
     -2.727728     15.683075     15.683075     31.366150
     -2.717718     15.613041     15.613041     31.226082
     -2.707708     15.844574     15.844574     31.689148
     -2.697698     16.456778     16.456778     32.913556
     -2.687688     17.598947     17.598947     35.197893
     -2.677678     19.357360     19.357360     38.714720
     -2.667668     21.637997     21.637997     43.275994
     -2.657658     24.149917     24.149917     48.299835
     -2.647648     26.511479     26.511479     53.022958
     -2.637638     28.420188     28.420188     56.840377
     -2.627628     29.782512     29.782512     59.565025
     -2.617618     30.725156     30.725156     61.450312
     -2.607608     31.487599     31.487599     62.975198
     -2.597598     32.270807     32.270807     64.541614
     -2.587588     33.134829     33.134829     66.269658
     -2.577578     33.989805     33.989805     67.979610
     -2.567568     34.654521     34.654521     69.309041
     -2.557558     34.922348     34.922348     69.844696
     -2.547548     34.598134     34.598134     69.196269
     -2.537538     33.519698     33.519698     67.039395
     -2.527528     31.601132     31.601132     63.202264
     -2.517518     28.908524     28.908524     57.817047
     -2.507508     25.728585     25.728585     51.457171
     -2.497497     22.566729     22.566729     45.133458
     -2.487487     20.039534     20.039534     40.079068
     -2.477477     18.688996     18.688996     37.377992
     -2.467467     18.798071     18.798071     37.596142
     -2.457457     20.294883     20.294883     40.589765
     -2.447447     22.793517     22.793517     45.587033
     -2.437437     25.755628     25.755628     51.511256
     -2.427427     28.700826     28.700826     57.401653
     -2.417417     31.370348     31.370348     62.740696
     -2.407407     33.768751     33.768751     67.537501
     -2.397397     36.064571     36.064571     72.129143
     -2.387387     38.398704     38.398704     76.797408
     -2.377377     40.697170     40.697170     81.394340
     -2.367367     42.588976     42.588976     85.177953
     -2.357357     43.484810     43.484810     86.969619
     -2.347347     42.796116     42.796116     85.592233
     -2.337337     40.201782     40.201782     80.403564
     -2.327327     35.839380     35.839380     71.678760
     -2.317317     30.329779     30.329779     60.659559
     -2.307307     24.623115     24.623115     49.246230
     -2.297297     19.736138     19.736138     39.472277
     -2.287287     16.489983     16.489983     32.979966
     -2.277277     15.338129     15.338129     30.676259
     -2.267267     16.319457     16.319457     32.638914
     -2.257257     19.118513     19.118513     38.237026
     -2.247247     23.188150     23.188150     46.376300
     -2.237237     27.887489     27.887489     55.774978
     -2.227227     32.597997     32.597997     65.195994
     -2.217217     36.794497     36.794497     73.588994
     -2.207207     40.066573     40.066573     80.133146
     -2.197197     42.108258     42.108258     84.216515
     -2.187187     42.709866     42.709866     85.419731
     -2.177177     41.780795     41.780795     83.561591
     -2.167167     39.402114     39.402114     78.804229
     -2.157157     35.869987     35.869987     71.739974
     -2.147147     31.675803     31.675803     63.351607
     -2.137137     27.396035     27.396035     54.792070
     -2.127127     23.522595     23.522595     47.045189
     -2.117117     20.312904     20.312904     40.625808
     -2.107107     17.739279     17.739279     35.478557
     -2.097097     15.564376     15.564376     31.128752
     -2.087087     13.497922     13.497922     26.995844
     -2.077077     11.348134     11.348134     22.696269
     -2.067067      9.094553      9.094553     18.189106
     -2.057057      6.862882      6.862882     13.725763
     -2.047047      4.837384      4.837384      9.674767
     -2.037037      3.169267      3.169267      6.338535
     -2.027027      1.924721      1.924721      3.849443
     -2.017017      1.083072      1.083072      2.166144
     -2.007007      0.568495      0.568495      1.136990
     -1.996997      0.290472      0.290472      0.580944
     -1.986987      0.175667      0.175667      0.351333
     -1.976977      0.186216      0.186216      0.372432
     -1.966967      0.327504      0.327504      0.655008
     -1.956957      0.649349      0.649349      1.298699
     -1.946947      1.240593      1.240593      2.481185
     -1.936937      2.212921      2.212921      4.425843
     -1.926927      3.669932      3.669932      7.339864
     -1.916917      5.663748      5.663748     11.327496
     -1.906907      8.151563      8.151563     16.303126
     -1.896897     10.971543     10.971543     21.943087
     -1.886887     13.854722     13.854722     27.709444
     -1.876877     16.475875     16.475875     32.951751
     -1.866867     18.529191     18.529191     37.058382
     -1.856857     19.804182     19.804182     39.608364
     -1.846847     20.238371     20.238371     40.476741
     -1.836837     19.931375     19.931375     39.862750
     -1.826827     19.113891     19.113891     38.227782
     -1.816817     18.074519     18.074519     36.149038
     -1.806807     17.061902     17.061902     34.123804
     -1.796797     16.197375     16.197375     32.394750
     -1.786787     15.440809     15.440809     30.881618
     -1.776777     14.635024     14.635024     29.270048
     -1.766767     13.614298     13.614298     27.228596
     -1.756757     12.323490     12.323490     24.646979
     -1.746747     10.884028     10.884028     21.768055
     -1.736737      9.570313      9.570313     19.140625
     -1.726727      8.707519      8.707519     17.415038
     -1.716717      8.540465      8.540465     17.080929
     -1.706707      9.133919      9.133919     18.267838
     -1.696697     10.346887     10.346887     20.693773
     -1.686687     11.888755     11.888755     23.777511
     -1.676677     13.428575     13.428575     26.857150
     -1.666667     14.704562     14.704562     29.409125
     -1.656657     15.581883     15.581883     31.163766
     -1.646647     16.036699     16.036699     32.073398
     -1.636637     16.089589     16.089589     32.179178
     -1.626627     15.743206     15.743206     31.486411
