# EIG2DOS: Utility for SIESTA to obtain the electronic density of states
#  E. Artacho, Apr 1999, A. Garcia, Apr 2012
#  Nick R. Papior, Feb 2017
# ------------------------------------------
# Eigenvalues calculated from a non-polarized calculation
# Eigenvalues read from siesta.EIG
# Kpoint weights read from siesta.KP
# Using smearing parameter:   0.0500
# Using 1000 points in the energy range
# Selected bands: 1 to: 2981
# Emin, Emax in file for selected band(s):    -27.3188498    218.4192550
# Nbands, Nspin, Nk   =   2981     1     1
# E_F                 =    -4.1811 eV --> (shifted to ZERO)
# Broadening          =     0.0500 eV
#
#        E            N(up)  (=)   N(down)         Ntot
     -5.000000     33.967059     33.967059     67.934118
     -4.989990     39.172270     39.172270     78.344539
     -4.979980     43.691285     43.691285     87.382570
     -4.969970     46.687360     46.687360     93.374720
     -4.959960     47.590608     47.590608     95.181216
     -4.949950     46.290349     46.290349     92.580699
     -4.939940     43.171859     43.171859     86.343718
     -4.929930     39.006324     39.006324     78.012648
     -4.919920     34.763031     34.763031     69.526063
     -4.909910     31.416940     31.416940     62.833881
     -4.899900     29.784641     29.784641     59.569282
     -4.889890     30.382396     30.382396     60.764792
     -4.879880     33.299640     33.299640     66.599281
     -4.869870     38.117262     38.117262     76.234524
     -4.859860     43.931557     43.931557     87.863113
     -4.849850     49.530030     49.530030     99.060060
     -4.839840     53.699631     53.699631    107.399263
     -4.829830     55.570740     55.570740    111.141480
     -4.819820     54.864585     54.864585    109.729171
     -4.809810     51.945102     51.945102    103.890204
     -4.799800     47.660749     47.660749     95.321499
     -4.789790     43.049310     43.049310     86.098620
     -4.779780     39.023638     39.023638     78.047277
     -4.769770     36.143792     36.143792     72.287584
     -4.759760     34.529733     34.529733     69.059465
     -4.749750     33.912133     33.912133     67.824267
     -4.739740     33.779999     33.779999     67.559999
     -4.729730     33.566738     33.566738     67.133476
     -4.719720     32.815606     32.815606     65.631213
     -4.709710     31.279408     31.279408     62.558817
     -4.699700     28.938886     28.938886     57.877772
     -4.689690     25.961030     25.961030     51.922060
     -4.679680     22.642001     22.642001     45.284002
     -4.669670     19.372212     19.372212     38.744424
     -4.659660     16.627743     16.627743     33.255486
     -4.649650     14.957363     14.957363     29.914726
     -4.639640     14.923396     14.923396     29.846792
     -4.629630     16.975223     16.975223     33.950447
     -4.619620     21.275739     21.275739     42.551478
     -4.609610     27.543798     27.543798     55.087596
     -4.599600     34.998093     34.998093     69.996187
     -4.589590     42.470482     42.470482     84.940965
     -4.579580     48.693424     48.693424     97.386848
     -4.569570     52.678159     52.678159    105.356318
     -4.559560     54.035361     54.035361    108.070723
     -4.549550     53.094594     53.094594    106.189187
     -4.539540     50.761127     50.761127    101.522254
     -4.529530     48.166848     48.166848     96.333696
     -4.519520     46.261493     46.261493     92.522986
     -4.509510     45.507098     45.507098     91.014196
     -4.499499     45.782117     45.782117     91.564234
     -4.489489     46.507297     46.507297     93.014593
     -4.479479     46.918300     46.918300     93.836600
     -4.469469     46.363800     46.363800     92.727601
     -4.459459     44.515123     44.515123     89.030246
     -4.449449     41.425756     41.425756     82.851511
     -4.439439     37.450385     37.450385     74.900770
     -4.429429     33.090390     33.090390     66.180780
     -4.419419     28.849434     28.849434     57.698869
     -4.409409     25.153482     25.153482     50.306963
     -4.399399     22.335288     22.335288     44.670575
     -4.389389     20.641081     20.641081     41.282162
     -4.379379     20.215081     20.215081     40.430162
     -4.369369     21.054042     21.054042     42.108085
     -4.359359     22.967647     22.967647     45.935294
     -4.349349     25.594401     25.594401     51.188803
     -4.339339     28.494039     28.494039     56.988078
     -4.329329     31.287029     31.287029     62.574057
     -4.319319     33.776226     33.776226     67.552452
     -4.309309     35.988814     35.988814     71.977627
     -4.299299     38.114252     38.114252     76.228503
     -4.289289     40.361972     40.361972     80.723944
     -4.279279     42.797359     42.797359     85.594718
     -4.269269     45.225712     45.225712     90.451424
     -4.259259     47.181615     47.181615     94.363229
     -4.249249     48.047528     48.047528     96.095056
     -4.239239     47.274674     47.274674     94.549348
     -4.229229     44.626191     44.626191     89.252383
     -4.219219     40.335021     40.335021     80.670042
     -4.209209     35.092209     35.092209     70.184419
     -4.199199     29.853978     29.853978     59.707956
     -4.189189     25.542587     25.542587     51.085175
     -4.179179     22.767756     22.767756     45.535511
     -4.169169     21.683309     21.683309     43.366618
     -4.159159     22.027301     22.027301     44.054602
     -4.149149     23.310401     23.310401     46.620801
     -4.139139     25.056466     25.056466     50.112931
     -4.129129     26.983245     26.983245     53.966490
     -4.119119     29.042677     29.042677     58.085354
     -4.109109     31.307209     31.307209     62.614418
     -4.099099     33.767126     33.767126     67.534251
     -4.089089     36.159048     36.159048     72.318096
     -4.079079     37.942381     37.942381     75.884761
     -4.069069     38.466920     38.466920     76.933839
     -4.059059     37.263585     37.263585     74.527170
     -4.049049     34.308243     34.308243     68.616487
     -4.039039     30.113102     30.113102     60.226204
     -4.029029     25.592967     25.592967     51.185934
     -4.019019     21.775097     21.775097     43.550193
     -4.009009     19.494425     19.494425     38.988851
     -3.998999     19.202156     19.202156     38.404312
     -3.988989     20.937343     20.937343     41.874687
     -3.978979     24.425812     24.425812     48.851624
     -3.968969     29.227621     29.227621     58.455243
     -3.958959     34.865126     34.865126     69.730251
     -3.948949     40.904755     40.904755     81.809510
     -3.938939     47.000482     47.000482     94.000963
     -3.928929     52.913157     52.913157    105.826314
     -3.918919     58.503658     58.503658    117.007316
     -3.908909     63.685460     63.685460    127.370921
     -3.898899     68.335663     68.335663    136.671326
     -3.888889     72.197760     72.197760    144.395521
     -3.878879     74.835701     74.835701    149.671401
     -3.868869     75.689069     75.689069    151.378139
     -3.858859     74.232077     74.232077    148.464155
     -3.848849     70.181622     70.181622    140.363245
     -3.838839     63.667211     63.667211    127.334421
     -3.828829     55.286347     55.286347    110.572694
     -3.818819     46.015168     46.015168     92.030337
     -3.808809     37.000387     37.000387     74.000775
     -3.798799     29.299496     29.299496     58.598992
     -3.788789     23.648257     23.648257     47.296515
     -3.778779     20.319098     20.319098     40.638196
     -3.768769     19.102071     19.102071     38.204142
     -3.758759     19.404762     19.404762     38.809523
     -3.748749     20.438713     20.438713     40.877425
     -3.738739     21.442574     21.442574     42.885148
     -3.728729     21.886981     21.886981     43.773963
     -3.718719     21.611709     21.611709     43.223419
     -3.708709     20.859909     20.859909     41.719818
     -3.698699     20.195771     20.195771     40.391543
     -3.688689     20.319681     20.319681     40.639363
     -3.678679     21.825857     21.825857     43.651715
     -3.668669     24.973697     24.973697     49.947394
     -3.658659     29.552477     29.552477     59.104954
     -3.648649     34.897300     34.897300     69.794601
     -3.638639     40.061650     40.061650     80.123300
     -3.628629     44.087479     44.087479     88.174958
     -3.618619     46.270702     46.270702     92.541404
     -3.608609     46.325144     46.325144     92.650288
     -3.598599     44.400205     44.400205     88.800410
     -3.588589     40.974347     40.974347     81.948693
     -3.578579     36.687801     36.687801     73.375602
     -3.568569     32.176828     32.176828     64.353656
     -3.558559     27.944903     27.944903     55.889806
     -3.548549     24.283358     24.283358     48.566717
     -3.538539     21.248749     21.248749     42.497497
     -3.528529     18.704687     18.704687     37.409375
     -3.518519     16.423582     16.423582     32.847164
     -3.508509     14.217650     14.217650     28.435301
     -3.498498     12.048567     12.048567     24.097135
     -3.488488     10.070719     10.070719     20.141438
     -3.478478      8.593066      8.593066     17.186132
     -3.468468      7.978018      7.978018     15.956036
     -3.458458      8.512885      8.512885     17.025769
     -3.448448     10.289486     10.289486     20.578972
     -3.438438     13.123594     13.123594     26.247187
     -3.428428     16.545859     16.545859     33.091718
     -3.418418     19.890093     19.890093     39.780186
     -3.408408     22.477210     22.477210     44.954419
     -3.398398     23.844947     23.844947     47.689894
     -3.388388     23.932343     23.932343     47.864685
     -3.378378     23.129616     23.129616     46.259233
     -3.368368     22.159053     22.159053     44.318105
     -3.358358     21.831204     21.831204     43.662407
     -3.348348     22.774035     22.774035     45.548070
     -3.338338     25.231207     25.231207     50.462415
     -3.328328     28.981842     28.981842     57.963684
     -3.318318     33.386166     33.386166     66.772332
     -3.308308     37.536457     37.536457     75.072914
     -3.298298     40.484833     40.484833     80.969665
     -3.288288     41.504667     41.504667     83.009333
     -3.278278     40.313451     40.313451     80.626902
     -3.268268     37.167600     37.167600     74.335201
     -3.258258     32.769582     32.769582     65.539163
     -3.248248     28.008681     28.008681     56.017361
     -3.238238     23.644912     23.644912     47.289823
     -3.228228     20.079893     20.079893     40.159787
     -3.218218     17.311011     17.311011     34.622022
     -3.208208     15.065227     15.065227     30.130453
     -3.198198     13.020631     13.020631     26.041262
     -3.188188     10.998104     10.998104     21.996209
     -3.178178      9.046775      9.046775     18.093551
     -3.168168      7.417293      7.417293     14.834585
     -3.158158      6.468296      6.468296     12.936591
     -3.148148      6.559389      6.559389     13.118779
     -3.138138      7.958886      7.958886     15.917771
     -3.128128     10.767417     10.767417     21.534835
     -3.118118     14.853904     14.853904     29.707807
     -3.108108     19.818564     19.818564     39.637128
     -3.098098     25.016431     25.016431     50.032863
     -3.088088     29.668298     29.668298     59.336595
     -3.078078     33.047147     33.047147     66.094293
     -3.068068     34.677816     34.677816     69.355633
     -3.058058     34.462534     34.462534     68.925069
     -3.048048     32.670549     32.670549     65.341099
     -3.038038     29.797993     29.797993     59.595987
     -3.028028     26.373403     26.373403     52.746806
     -3.018018     22.809187     22.809187     45.618374
     -3.008008     19.363348     19.363348     38.726696
     -2.997998     16.204920     16.204920     32.409841
     -2.987988     13.518992     13.518992     27.037984
     -2.977978     11.576281     11.576281     23.152562
     -2.967968     10.725033     10.725033     21.450065
     -2.957958     11.309488     11.309488     22.618975
     -2.947948     13.550634     13.550634     27.101268
     -2.937938     17.433376     17.433376     34.866752
     -2.927928     22.638908     22.638908     45.277816
     -2.917918     28.551337     28.551337     57.102674
     -2.907908     34.353101     34.353101     68.706202
     -2.897898     39.198929     39.198929     78.397858
     -2.887888     42.425038     42.425038     84.850076
     -2.877878     43.723252     43.723252     87.446504
     -2.867868     43.208619     43.208619     86.417237
     -2.857858     41.344169     41.344169     82.688338
     -2.847848     38.747482     38.747482     77.494964
     -2.837838     35.961082     35.961082     71.922164
     -2.827828     33.288932     33.288932     66.577864
     -2.817818     30.768514     30.768514     61.537028
     -2.807808     28.277040     28.277040     56.554079
     -2.797798     25.700597     25.700597     51.401194
     -2.787788     23.066682     23.066682     46.133364
     -2.777778     20.569474     20.569474     41.138948
     -2.767768     18.484929     18.484929     36.969858
     -2.757758     17.038081     17.038081     34.076163
     -2.747748     16.308770     16.308770     32.617540
     -2.737738     16.230822     16.230822     32.461645
     -2.727728     16.674084     16.674084     33.348168
     -2.717718     17.541871     17.541871     35.083743
     -2.707708     18.807795     18.807795     37.615589
     -2.697698     20.463444     20.463444     40.926888
     -2.687688     22.420147     22.420147     44.840294
     -2.677678     24.450914     24.450914     48.901828
     -2.667668     26.237133     26.237133     52.474267
     -2.657658     27.509562     27.509562     55.019123
     -2.647648     28.198261     28.198261     56.396522
     -2.637638     28.488875     28.488875     56.977750
     -2.627628     28.739179     28.739179     57.478357
     -2.617618     29.300361     29.300361     58.600722
     -2.607608     30.346117     30.346117     60.692234
     -2.597598     31.799083     31.799083     63.598165
     -2.587588     33.374334     33.374334     66.748669
     -2.577578     34.690213     34.690213     69.380426
     -2.567568     35.376965     35.376965     70.753930
     -2.557558     35.147107     35.147107     70.294214
     -2.547548     33.838343     33.838343     67.676685
     -2.537538     31.456277     31.456277     62.912555
     -2.527528     28.220282     28.220282     56.440564
     -2.517518     24.580585     24.580585     49.161171
     -2.507508     21.165441     21.165441     42.330883
     -2.497497     18.646280     18.646280     37.292560
     -2.487487     17.555799     17.555799     35.111598
     -2.477477     18.126715     18.126715     36.253430
     -2.467467     20.218208     20.218208     40.436416
     -2.457457     23.365048     23.365048     46.730096
     -2.447447     26.936660     26.936660     53.873319
     -2.437437     30.348483     30.348483     60.696966
     -2.427427     33.242809     33.242809     66.485619
     -2.417417     35.562746     35.562746     71.125492
     -2.407407     37.483639     37.483639     74.967279
     -2.397397     39.229002     39.229002     78.458004
     -2.387387     40.857201     40.857201     81.714402
     -2.377377     42.130390     42.130390     84.260780
     -2.367367     42.547795     42.547795     85.095589
     -2.357357     41.546447     41.546447     83.092894
     -2.347347     38.780812     38.780812     77.561625
     -2.337337     34.342425     34.342425     68.684851
     -2.327327     28.807432     28.807432     57.614863
     -2.317317     23.090821     23.090821     46.181642
     -2.307307     18.183746     18.183746     36.367492
     -2.297297     14.894726     14.894726     29.789452
     -2.287287     13.688457     13.688457     27.376914
     -2.277277     14.648762     14.648762     29.297524
     -2.267267     17.534142     17.534142     35.068283
     -2.257257     21.873883     21.873883     43.747766
     -2.247247     27.064986     27.064986     54.129973
     -2.237237     32.453148     32.453148     64.906297
     -2.227227     37.397408     37.397408     74.794817
     -2.217217     41.324424     41.324424     82.648847
     -2.207207     43.779158     43.779158     87.558316
     -2.197197     44.477151     44.477151     88.954302
     -2.187187     43.357504     43.357504     86.715008
     -2.177177     40.623210     40.623210     81.246419
     -2.167167     36.741750     36.741750     73.483500
     -2.157157     32.377563     32.377563     64.755126
     -2.147147     28.250131     28.250131     56.500263
     -2.137137     24.951269     24.951269     49.902538
     -2.127127     22.787666     22.787666     45.575333
     -2.117117     21.713711     21.713711     43.427422
     -2.107107     21.380905     21.380905     42.761810
     -2.097097     21.277609     21.277609     42.555218
     -2.087087     20.898880     20.898880     41.797760
     -2.077077     19.886381     19.886381     39.772762
     -2.067067     18.103119     18.103119     36.206238
     -2.057057     15.636475     15.636475     31.272950
     -2.047047     12.742713     12.742713     25.485425
     -2.037037      9.756701      9.756701     19.513402
     -2.027027      6.995870      6.995870     13.991741
     -2.017017      4.686857      4.686857      9.373714
     -2.007007      2.933979      2.933979      5.867958
     -1.996997      1.732089      1.732089      3.464178
     -1.986987      1.010237      1.010237      2.020474
     -1.976977      0.684854      0.684854      1.369707
     -1.966967      0.703522      0.703522      1.407043
     -1.956957      1.067954      1.067954      2.135908
     -1.946947      1.831871      1.831871      3.663742
     -1.936937      3.074395      3.074395      6.148790
     -1.926927      4.854723      4.854723      9.709446
     -1.916917      7.161009      7.161009     14.322018
     -1.906907      9.872885      9.872885     19.745771
     -1.896897     12.756666     12.756666     25.513332
     -1.886887     15.501448     15.501448     31.002895
     -1.876877     17.787155     17.787155     35.574310
     -1.866867     19.362135     19.362135     38.724269
     -1.856857     20.105479     20.105479     40.210958
     -1.846847     20.056114     20.056114     40.112229
     -1.836837     19.399564     19.399564     38.799129
     -1.826827     18.411181     18.411181     36.822363
     -1.816817     17.365746     17.365746     34.731492
     -1.806807     16.440376     16.440376     32.880751
     -1.796797     15.651707     15.651707     31.303414
     -1.786787     14.862839     14.862839     29.725677
     -1.776777     13.864003     13.864003     27.728006
     -1.766767     12.489271     12.489271     24.978542
     -1.756757     10.709058     10.709058     21.418115
     -1.746747      8.652906      8.652906     17.305812
     -1.736737      6.559391      6.559391     13.118782
     -1.726727      4.690116      4.690116      9.380231
     -1.716717      3.256772      3.256772      6.513543
     -1.706707      2.390799      2.390799      4.781599
     -1.696697      2.152293      2.152293      4.304586
     -1.686687      2.551461      2.551461      5.102921
     -1.676677      3.554682      3.554682      7.109363
     -1.666667      5.065562      5.065562     10.131124
     -1.656657      6.896429      6.896429     13.792858
     -1.646647      8.761608      8.761608     17.523216
     -1.636637     10.319344     10.319344     20.638688
     -1.626627     11.264270     11.264270     22.528540
