# EIG2DOS: Utility for SIESTA to obtain the electronic density of states
#  E. Artacho, Apr 1999, A. Garcia, Apr 2012
#  Nick R. Papior, Feb 2017
# ------------------------------------------
# Eigenvalues calculated from a non-polarized calculation
# Eigenvalues read from siesta.EIG
# Kpoint weights read from siesta.KP
# Using smearing parameter:   0.0500
# Using 1000 points in the energy range
# Selected bands: 1 to: 2981
# Emin, Emax in file for selected band(s):    -27.4155042    218.4049570
# Nbands, Nspin, Nk   =   2981     1     1
# E_F                 =    -4.2032 eV --> (shifted to ZERO)
# Broadening          =     0.0500 eV
#
#        E            N(up)  (=)   N(down)         Ntot
     -5.000000     31.302994     31.302994     62.605987
     -4.989990     36.343858     36.343858     72.687716
     -4.979980     41.169916     41.169916     82.339833
     -4.969970     44.959713     44.959713     89.919426
     -4.959960     46.996444     46.996444     93.992888
     -4.949950     46.906111     46.906111     93.812222
     -4.939940     44.788626     44.788626     89.577252
     -4.929930     41.202048     41.202048     82.404096
     -4.919920     37.028472     37.028472     74.056943
     -4.909910     33.286530     33.286530     66.573059
     -4.899900     30.944188     30.944188     61.888376
     -4.889890     30.749923     30.749923     61.499845
     -4.879880     33.080546     33.080546     66.161092
     -4.869870     37.819773     37.819773     75.639547
     -4.859860     44.313592     44.313592     88.627184
     -4.849850     51.456430     51.456430    102.912860
     -4.839840     57.923005     57.923005    115.846011
     -4.829830     62.491767     62.491767    124.983535
     -4.819820     64.351697     64.351697    128.703394
     -4.809810     63.282290     63.282290    126.564580
     -4.799800     59.649551     59.649551    119.299102
     -4.789790     54.237628     54.237628    108.475256
     -4.779780     47.995008     47.995008     95.990016
     -4.769770     41.790535     41.790535     83.581070
     -4.759760     36.249629     36.249629     72.499257
     -4.749750     31.695946     31.695946     63.391892
     -4.739740     28.182317     28.182317     56.364634
     -4.729730     25.571448     25.571448     51.142897
     -4.719720     23.624622     23.624622     47.249245
     -4.709710     22.071185     22.071185     44.142371
     -4.699700     20.654493     20.654493     41.308987
     -4.689690     19.168861     19.168861     38.337722
     -4.679680     17.505052     17.505052     35.010104
     -4.669670     15.706185     15.706185     31.412370
     -4.659660     14.012998     14.012998     28.025995
     -4.649650     12.864933     12.864933     25.729866
     -4.639640     12.831277     12.831277     25.662554
     -4.629630     14.470264     14.470264     28.940529
     -4.619620     18.142511     18.142511     36.285022
     -4.609610     23.830293     23.830293     47.660587
     -4.599600     31.030430     31.030430     62.060860
     -4.589590     38.785593     38.785593     77.571187
     -4.579580     45.883853     45.883853     91.767706
     -4.569570     51.189383     51.189383    102.378766
     -4.559560     53.995175     53.995175    107.990350
     -4.549550     54.254960     54.254960    108.509920
     -4.539540     52.586633     52.586633    105.173266
     -4.529530     50.033800     50.033800    100.067601
     -4.519520     47.678744     47.678744     95.357488
     -4.509510     46.264108     46.264108     92.528216
     -4.499499     45.971465     45.971465     91.942930
     -4.489489     46.430817     46.430817     92.861635
     -4.479479     46.934208     46.934208     93.868415
     -4.469469     46.746044     46.746044     93.492087
     -4.459459     45.376273     45.376273     90.752546
     -4.449449     42.717064     42.717064     85.434127
     -4.439439     39.017507     39.017507     78.035013
     -4.429429     34.745447     34.745447     69.490894
     -4.419419     30.424307     30.424307     60.848614
     -4.409409     26.519652     26.519652     53.039303
     -4.399399     23.398841     23.398841     46.797682
     -4.389389     21.333616     21.333616     42.667231
     -4.379379     20.495946     20.495946     40.991891
     -4.369369     20.922572     20.922572     41.845144
     -4.359359     22.469956     22.469956     44.939912
     -4.349349     24.809432     24.809432     49.618864
     -4.339339     27.498106     27.498106     54.996213
     -4.329329     30.114141     30.114141     60.228283
     -4.319319     32.399745     32.399745     64.799490
     -4.309309     34.342293     34.342293     68.684586
     -4.299299     36.149733     36.149733     72.299466
     -4.289289     38.123040     38.123040     76.246079
     -4.279279     40.472188     40.472188     80.944376
     -4.269269     43.148125     43.148125     86.296251
     -4.259259     45.766073     45.766073     91.532145
     -4.249249     47.671769     47.671769     95.343538
     -4.239239     48.150470     48.150470     96.300940
     -4.229229     46.710698     46.710698     93.421396
     -4.219219     43.322946     43.322946     86.645891
     -4.209209     38.495353     38.495353     76.990706
     -4.199199     33.136288     33.136288     66.272576
     -4.189189     28.256827     28.256827     56.513654
     -4.179179     24.645312     24.645312     49.290625
     -4.169169     22.655095     22.655095     45.310189
     -4.159159     22.183587     22.183587     44.367174
     -4.149149     22.826172     22.826172     45.652344
     -4.139139     24.113601     24.113601     48.227202
     -4.129129     25.716988     25.716988     51.433975
     -4.119119     27.531314     27.531314     55.062628
     -4.109109     29.608788     29.608788     59.217576
     -4.099099     31.984287     31.984287     63.968574
     -4.089089     34.491454     34.491454     68.982908
     -4.079079     36.683009     36.683009     73.366018
     -4.069069     37.924820     37.924820     75.849640
     -4.059059     37.641227     37.641227     75.282454
     -4.049049     35.596537     35.596537     71.193074
     -4.039039     32.064309     32.064309     64.128618
     -4.029029     27.789850     27.789850     55.579700
     -4.019019     23.761726     23.761726     47.523452
     -4.009009     20.905162     20.905162     41.810325
     -3.998999     19.836062     19.836062     39.672123
     -3.988989     20.762535     20.762535     41.525070
     -3.978979     23.534262     23.534262     47.068524
     -3.968969     27.774821     27.774821     55.549643
     -3.958959     33.019656     33.019656     66.039312
     -3.948949     38.814489     38.814489     77.628977
     -3.938939     44.771425     44.771425     89.542849
     -3.928929     50.599821     50.599821    101.199642
     -3.918919     56.118519     56.118519    112.237038
     -3.908909     61.235813     61.235813    122.471625
     -3.898899     65.882316     65.882316    131.764633
     -3.888889     69.909411     69.909411    139.818822
     -3.878879     73.002623     73.002623    146.005246
     -3.868869     74.672367     74.672367    149.344735
     -3.858859     74.356452     74.356452    148.712903
     -3.848849     71.612112     71.612112    143.224223
     -3.838839     66.323461     66.323461    132.646922
     -3.828829     58.833535     58.833535    117.667071
     -3.818819     49.937468     49.937468     99.874936
     -3.808809     40.729338     40.729338     81.458676
     -3.798799     32.351869     32.351869     64.703739
     -3.788789     25.730793     25.730793     51.461587
     -3.778779     21.374667     21.374667     42.749335
     -3.768769     19.292659     19.292659     38.585318
     -3.758759     19.043170     19.043170     38.086340
     -3.748749     19.890382     19.890382     39.780763
     -3.738739     21.022498     21.022498     42.044996
     -3.728729     21.775961     21.775961     43.551922
     -3.718719     21.811942     21.811942     43.623884
     -3.708709     21.202125     21.202125     42.404250
     -3.698699     20.398725     20.398725     40.797449
     -3.688689     20.088584     20.088584     40.177167
     -3.678679     20.961967     20.961967     41.923933
     -3.668669     23.458397     23.458397     46.916794
     -3.658659     27.572712     27.572712     55.145425
     -3.648649     32.798650     32.798650     65.597300
     -3.638639     38.245098     38.245098     76.490196
     -3.628629     42.891473     42.891473     85.782945
     -3.618619     45.885653     45.885653     91.771305
     -3.608609     46.768588     46.768588     93.537175
     -3.598599     45.549348     45.549348     91.098696
     -3.588589     42.629320     42.629320     85.258640
     -3.578579     38.636910     38.636910     77.273820
     -3.568569     34.250186     34.250186     68.500372
     -3.558559     30.058491     30.058491     60.116983
     -3.548549     26.477855     26.477855     52.955710
     -3.538539     23.716391     23.716391     47.432783
     -3.528529     21.784826     21.784826     43.569652
     -3.518519     20.546104     20.546104     41.092207
     -3.508509     19.787426     19.787426     39.574852
     -3.498498     19.288477     19.288477     38.576953
     -3.488488     18.865773     18.865773     37.731547
     -3.478478     18.392879     18.392879     36.785758
     -3.468468     17.810134     17.810134     35.620269
     -3.458458     17.131083     17.131083     34.262166
     -3.448448     16.434867     16.434867     32.869735
     -3.438438     15.829061     15.829061     31.658122
     -3.428428     15.388053     15.388053     30.776106
     -3.418418     15.102029     15.102029     30.204057
     -3.408408     14.879570     14.879570     29.759140
     -3.398398     14.617849     14.617849     29.235697
     -3.388388     14.306638     14.306638     28.613277
     -3.378378     14.103273     14.103273     28.206546
     -3.368368     14.329181     14.329181     28.658361
     -3.358358     15.384406     15.384406     30.768811
     -3.348348     17.619610     17.619610     35.239220
     -3.338338     21.215921     21.215921     42.431842
     -3.328328     26.102105     26.102105     52.204209
     -3.318318     31.913157     31.913157     63.826314
     -3.308308     37.990951     37.990951     75.981903
     -3.298298     43.444640     43.444640     86.889279
     -3.288288     47.296401     47.296401     94.592802
     -3.278278     48.709320     48.709320     97.418640
     -3.268268     47.236163     47.236163     94.472327
     -3.258258     42.984813     42.984813     85.969626
     -3.248248     36.612065     36.612065     73.224129
     -3.238238     29.134048     29.134048     58.268095
     -3.228228     21.631843     21.631843     43.263686
     -3.218218     14.976420     14.976420     29.952840
     -3.208208      9.673229      9.673229     19.346458
     -3.198198      5.857278      5.857278     11.714557
     -3.188188      3.401580      3.401580      6.803161
     -3.178178      2.069817      2.069817      4.139634
     -3.168168      1.651219      1.651219      3.302438
     -3.158158      2.042398      2.042398      4.084795
     -3.148148      3.265680      3.265680      6.531359
     -3.138138      5.427651      5.427651     10.855302
     -3.128128      8.629979      8.629979     17.259958
     -3.118118     12.855842     12.855842     25.711684
     -3.108108     17.870719     17.870719     35.741439
     -3.098098     23.185706     23.185706     46.371411
     -3.088088     28.119982     28.119982     56.239965
     -3.078078     31.960676     31.960676     63.921351
     -3.068068     34.166920     34.166920     68.333840
     -3.058058     34.530746     34.530746     69.061491
     -3.048048     33.217980     33.217980     66.435960
     -3.038038     30.669896     30.669896     61.339792
     -3.028028     27.419824     27.419824     54.839649
     -3.018018     23.922194     23.922194     47.844389
     -3.008008     20.475913     20.475913     40.951827
     -2.997998     17.261072     17.261072     34.522144
     -2.987988     14.440865     14.440865     28.881729
     -2.977978     12.251444     12.251444     24.502887
     -2.967968     11.022028     11.022028     22.044056
     -2.957958     11.113438     11.113438     22.226876
     -2.947948     12.803155     12.803155     25.606309
     -2.937938     16.162290     16.162290     32.324580
     -2.927928     20.968426     20.968426     41.936851
     -2.917918     26.688573     26.688573     53.377147
     -2.907908     32.551733     32.551733     65.103466
     -2.897898     37.706740     37.706740     75.413479
     -2.887888     41.428489     41.428489     82.856978
     -2.877878     43.306215     43.306215     86.612430
     -2.867868     43.340475     43.340475     86.680950
     -2.857858     41.903233     41.903233     83.806466
     -2.847848     39.571481     39.571481     79.142963
     -2.837838     36.903566     36.903566     73.807132
     -2.827828     34.256633     34.256633     68.513267
     -2.817818     31.723991     31.723991     63.447983
     -2.807808     29.209858     29.209858     58.419716
     -2.797798     26.588174     26.588174     53.176347
     -2.787788     23.851304     23.851304     47.702609
     -2.777778     21.166651     21.166651     42.333301
     -2.767768     18.816782     18.816782     37.633564
     -2.757758     17.067714     17.067714     34.135429
     -2.747748     16.049870     16.049870     32.099741
     -2.737738     15.723761     15.723761     31.447523
     -2.727728     15.945354     15.945354     31.890707
     -2.717718     16.579983     16.579983     33.159965
     -2.707708     17.581573     17.581573     35.163146
     -2.697698     18.979037     18.979037     37.958074
     -2.687688     20.779711     20.779711     41.559422
     -2.677678     22.864496     22.864496     45.728993
     -2.667668     24.963018     24.963018     49.926036
     -2.657658     26.745220     26.745220     53.490441
     -2.647648     27.982018     27.982018     55.964035
     -2.637638     28.672315     28.672315     57.344630
     -2.627628     29.049581     29.049581     58.099162
     -2.617618     29.458807     29.458807     58.917614
     -2.607608     30.177933     30.177933     60.355866
     -2.597598     31.286696     31.286696     62.573393
     -2.587588     32.643679     32.643679     65.287357
     -2.577578     33.957182     33.957182     67.914365
     -2.567568     34.886962     34.886962     69.773924
     -2.557558     35.122636     35.122636     70.245272
     -2.547548     34.430746     34.430746     68.861492
     -2.537538     32.697340     32.697340     65.394680
     -2.527528     29.985237     29.985237     59.970473
     -2.517518     26.586718     26.586718     53.173436
     -2.507508     23.023850     23.023850     46.047701
     -2.497497     19.960012     19.960012     39.920025
     -2.487487     18.032267     18.032267     36.064534
     -2.477477     17.662441     17.662441     35.324881
     -2.467467     18.924215     18.924215     37.848431
     -2.457457     21.524619     21.524619     43.049238
     -2.447447     24.912447     24.912447     49.824894
     -2.437437     28.473747     28.473747     56.947494
     -2.427427     31.736073     31.736073     63.472146
     -2.417417     34.495217     34.495217     68.990433
     -2.407407     36.807850     36.807850     73.615700
     -2.397397     38.852863     38.852863     77.705725
     -2.387387     40.728664     40.728664     81.457328
     -2.377377     42.291770     42.291770     84.583541
     -2.367367     43.130207     43.130207     86.260415
     -2.357357     42.702653     42.702653     85.405306
     -2.347347     40.587990     40.587990     81.175979
     -2.337337     36.726026     36.726026     73.452052
     -2.327327     31.528398     31.528398     63.056796
     -2.317317     25.803865     25.803865     51.607731
     -2.307307     20.535947     20.535947     41.071895
     -2.297297     16.616179     16.616179     33.232357
     -2.287287     14.638812     14.638812     29.277625
     -2.277277     14.812901     14.812901     29.625802
     -2.267267     16.985917     16.985917     33.971835
     -2.257257     20.735585     20.735585     41.471169
     -2.247247     25.482506     25.482506     50.965012
     -2.237237     30.591993     30.591993     61.183985
     -2.227227     35.451876     35.451876     70.903752
     -2.217217     39.526143     39.526143     79.052287
     -2.207207     42.392512     42.392512     84.785025
     -2.197197     43.776483     43.776483     87.552966
     -2.187187     43.591414     43.591414     87.182828
     -2.177177     41.979435     41.979435     83.958870
     -2.167167     39.325713     39.325713     78.651425
     -2.157157     36.205996     36.205996     72.411991
     -2.147147     33.244910     33.244910     66.489820
     -2.137137     30.913121     30.913121     61.826242
     -2.127127     29.347206     29.347206     58.694413
     -2.117117     28.292039     28.292039     56.584079
     -2.107107     27.215993     27.215993     54.431985
     -2.097097     25.556132     25.556132     51.112263
     -2.087087     22.973697     22.973697     45.947394
     -2.077077     19.493549     19.493549     38.987097
     -2.067067     15.470070     15.470070     30.940141
     -2.057057     11.418636     11.418636     22.837271
     -2.047047      7.813369      7.813369     15.626739
     -2.037037      4.947205      4.947205      9.894410
     -2.027027      2.895960      2.895960      5.791920
     -2.017017      1.568053      1.568053      3.136106
     -2.007007      0.790446      0.790446      1.580892
     -1.996997      0.385885      0.385885      0.771770
     -1.986987      0.220198      0.220198      0.440396
     -1.976977      0.220890      0.220890      0.441779
     -1.966967      0.378412      0.378412      0.756824
     -1.956957      0.739695      0.739695      1.479391
     -1.946947      1.396021      1.396021      2.792042
     -1.936937      2.461222      2.461222      4.922444
     -1.926927      4.036102      4.036102      8.072205
     -1.916917      6.161980      6.161980     12.323961
     -1.906907      8.776657      8.776657     17.553314
     -1.896897     11.692724     11.692724     23.385448
     -1.886887     14.614380     14.614380     29.228760
     -1.876877     17.194689     17.194689     34.389378
     -1.866867     19.118039     19.118039     38.236078
     -1.856857     20.181991     20.181991     40.363983
     -1.846847     20.352697     20.352697     40.705394
     -1.836837     19.775220     19.775220     39.550439
     -1.826827     18.730468     18.730468     37.460936
     -1.816817     17.544578     17.544578     35.089155
     -1.806807     16.476019     16.476019     32.952038
     -1.796797     15.623765     15.623765     31.247530
     -1.786787     14.901160     14.901160     29.802320
     -1.776777     14.094255     14.094255     28.188511
     -1.766767     12.979583     12.979583     25.959165
     -1.756757     11.442183     11.442183     22.884366
     -1.746747      9.535154      9.535154     19.070309
     -1.736737      7.457894      7.457894     14.915788
     -1.726727      5.476721      5.476721     10.953442
     -1.716717      3.837722      3.837722      7.675444
     -1.706707      2.713930      2.713930      5.427861
     -1.696697      2.198179      2.198179      4.396358
     -1.686687      2.322547      2.322547      4.645095
     -1.676677      3.073786      3.073786      6.147572
     -1.666667      4.385160      4.385160      8.770320
     -1.656657      6.109440      6.109440     12.218881
     -1.646647      7.999540      7.999540     15.999080
     -1.636637      9.728357      9.728357     19.456715
     -1.626627     10.962196     10.962196     21.924393
