# EIG2DOS: Utility for SIESTA to obtain the electronic density of states
#  E. Artacho, Apr 1999, A. Garcia, Apr 2012
#  Nick R. Papior, Feb 2017
# ------------------------------------------
# Eigenvalues calculated from a non-polarized calculation
# Eigenvalues read from siesta.EIG
# Kpoint weights read from siesta.KP
# Using smearing parameter:   0.0500
# Using 1000 points in the energy range
# Selected bands: 1 to: 2981
# Emin, Emax in file for selected band(s):    -27.1637480    218.3415740
# Nbands, Nspin, Nk   =   2981     1     1
# E_F                 =    -4.2657 eV --> (shifted to ZERO)
# Broadening          =     0.0500 eV
#
#        E            N(up)  (=)   N(down)         Ntot
     -5.000000     37.215223     37.215223     74.430447
     -4.989990     39.887022     39.887022     79.774045
     -4.979980     41.928771     41.928771     83.857542
     -4.969970     42.954789     42.954789     85.909577
     -4.959960     42.754872     42.754872     85.509744
     -4.949950     41.341277     41.341277     82.682555
     -4.939940     38.947160     38.947160     77.894320
     -4.929930     35.993615     35.993615     71.987231
     -4.919920     33.044920     33.044920     66.089840
     -4.909910     30.756992     30.756992     61.513983
     -4.899900     29.802268     29.802268     59.604536
     -4.889890     30.744676     30.744676     61.489352
     -4.879880     33.859968     33.859968     67.719936
     -4.869870     38.948780     38.948780     77.897561
     -4.859860     45.240454     45.240454     90.480908
     -4.849850     51.486937     51.486937    102.973875
     -4.839840     56.272825     56.272825    112.545651
     -4.829830     58.449025     58.449025    116.898049
     -4.819820     57.508215     57.508215    115.016430
     -4.809810     53.728396     53.728396    107.456792
     -4.799800     48.022425     48.022425     96.044851
     -4.789790     41.579408     41.579408     83.158816
     -4.779780     35.474903     35.474903     70.949806
     -4.769770     30.411245     30.411245     60.822491
     -4.759760     26.652669     26.652669     53.305338
     -4.749750     24.115758     24.115758     48.231516
     -4.739740     22.524217     22.524217     45.048433
     -4.729730     21.547412     21.547412     43.094823
     -4.719720     20.883877     20.883877     41.767754
     -4.709710     20.290251     20.290251     40.580501
     -4.699700     19.579006     19.579006     39.158011
     -4.689690     18.615701     18.615701     37.231403
     -4.679680     17.339848     17.339848     34.679697
     -4.669670     15.813363     15.813363     31.626727
     -4.659660     14.274487     14.274487     28.548974
     -4.649650     13.158170     13.158170     26.316340
     -4.639640     13.047934     13.047934     26.095868
     -4.629630     14.547725     14.547725     29.095450
     -4.619620     18.094482     18.094482     36.188964
     -4.609610     23.762933     23.762933     47.525866
     -4.599600     31.135721     31.135721     62.271443
     -4.589590     39.312700     39.312700     78.625399
     -4.579580     47.098229     47.098229     94.196458
     -4.569570     53.333053     53.333053    106.666106
     -4.559560     57.256295     57.256295    114.512591
     -4.549550     58.744122     58.744122    117.488244
     -4.539540     58.311786     58.311786    116.623571
     -4.529530     56.873677     56.873677    113.747353
     -4.519520     55.371760     55.371760    110.743520
     -4.509510     54.438337     54.438337    108.876674
     -4.499499     54.225906     54.225906    108.451811
     -4.489489     54.442951     54.442951    108.885902
     -4.479479     54.539440     54.539440    109.078881
     -4.469469     53.938669     53.938669    107.877339
     -4.459459     52.223658     52.223658    104.447316
     -4.449449     49.233021     49.233021     98.466043
     -4.439439     45.069426     45.069426     90.138853
     -4.429429     40.051681     40.051681     80.103362
     -4.419419     34.645215     34.645215     69.290431
     -4.409409     29.392502     29.392502     58.785003
     -4.399399     24.846223     24.846223     49.692446
     -4.389389     21.495984     21.495984     42.991969
     -4.379379     19.683379     19.683379     39.366758
     -4.369369     19.519486     19.519486     39.038971
     -4.359359     20.839195     20.839195     41.678391
     -4.349349     23.228516     23.228516     46.457031
     -4.339339     26.135023     26.135023     52.270046
     -4.329329     29.029930     29.029930     58.059860
     -4.319319     31.559310     31.559310     63.118620
     -4.309309     33.623538     33.623538     67.247077
     -4.299299     35.357307     35.357307     70.714613
     -4.289289     37.025572     37.025572     74.051144
     -4.279279     38.878599     38.878599     77.757198
     -4.269269     41.014038     41.014038     82.028076
     -4.259259     43.286783     43.286783     86.573566
     -4.249249     45.300049     45.300049     90.600097
     -4.239239     46.499519     46.499519     92.999038
     -4.229229     46.361594     46.361594     92.723189
     -4.219219     44.616205     44.616205     89.232410
     -4.209209     41.403577     41.403577     82.807154
     -4.199199     37.273564     37.273564     74.547127
     -4.189189     33.008030     33.008030     66.016060
     -4.179179     29.343599     29.343599     58.687199
     -4.169169     26.729828     26.729828     53.459657
     -4.159159     25.236844     25.236844     50.473687
     -4.149149     24.641853     24.641853     49.283705
     -4.139139     24.630580     24.630580     49.261160
     -4.129129     24.999054     24.999054     49.998108
     -4.119119     25.751180     25.751180     51.502360
     -4.109109     27.044381     27.044381     54.088762
     -4.099099     29.011995     29.011995     58.023990
     -4.089089     31.557946     31.557946     63.115891
     -4.079079     34.246383     34.246383     68.492766
     -4.069069     36.373761     36.373761     72.747523
     -4.059059     37.217533     37.217533     74.435066
     -4.049049     36.349872     36.349872     72.699744
     -4.039039     33.853780     33.853780     67.707559
     -4.029029     30.323899     30.323899     60.647798
     -4.019019     26.652923     26.652923     53.305847
     -4.009009     23.720723     23.720723     47.441447
     -3.998999     22.142640     22.142640     44.285280
     -3.988989     22.176908     22.176908     44.353815
     -3.978979     23.786065     23.786065     47.572131
     -3.968969     26.767407     26.767407     53.534814
     -3.958959     30.859248     30.859248     61.718496
     -3.948949     35.783100     35.783100     71.566199
     -3.938939     41.245340     41.245340     82.490681
     -3.928929     46.945889     46.945889     93.891777
     -3.918919     52.614499     52.614499    105.228999
     -3.908909     58.049175     58.049175    116.098350
     -3.898899     63.110355     63.110355    126.220710
     -3.888889     67.649605     67.649605    135.299211
     -3.878879     71.404368     71.404368    142.808736
     -3.868869     73.930811     73.930811    147.861621
     -3.858859     74.643005     74.643005    149.286011
     -3.848849     72.976150     72.976150    145.952300
     -3.838839     68.621334     68.621334    137.242668
     -3.828829     61.729364     61.729364    123.458728
     -3.818819     52.981607     52.981607    105.963215
     -3.808809     43.479443     43.479443     86.958885
     -3.798799     34.483382     34.483382     68.966765
     -3.788789     27.096431     27.096431     54.192863
     -3.778779     22.002976     22.002976     44.005952
     -3.768769     19.342573     19.342573     38.685147
     -3.758759     18.741263     18.741263     37.482527
     -3.748749     19.471576     19.471576     38.943152
     -3.738739     20.683774     20.683774     41.367547
     -3.728729     21.645021     21.645021     43.290042
     -3.718719     21.930873     21.930873     43.861747
     -3.708709     21.526797     21.526797     43.053593
     -3.698699     20.814455     20.814455     41.628911
     -3.688689     20.440341     20.440341     40.880682
     -3.678679     21.094109     21.094109     42.188219
     -3.668669     23.256135     23.256135     46.512270
     -3.658659     26.995949     26.995949     53.991898
     -3.648649     31.899219     31.899219     63.798439
     -3.638639     37.161251     37.161251     74.322502
     -3.628629     41.818984     41.818984     83.637968
     -3.618619     45.032015     45.032015     90.064031
     -3.608609     46.302630     46.302630     92.605259
     -3.598599     45.560340     45.560340     91.120681
     -3.588589     43.106012     43.106012     86.212024
     -3.578579     39.469290     39.469290     78.938581
     -3.568569     35.248184     35.248184     70.496368
     -3.558559     30.975806     30.975806     61.951611
     -3.548549     27.028739     27.028739     54.057478
     -3.538539     23.580236     23.580236     47.160472
     -3.528529     20.606095     20.606095     41.212190
     -3.518519     17.949137     17.949137     35.898274
     -3.508509     15.427270     15.427270     30.854540
     -3.498498     12.943566     12.943566     25.887132
     -3.488488     10.549602     10.549602     21.099205
     -3.478478      8.435685      8.435685     16.871371
     -3.468468      6.858208      6.858208     13.716415
     -3.458458      6.040143      6.040143     12.080287
     -3.448448      6.083246      6.083246     12.166493
     -3.438438      6.917839      6.917839     13.835678
     -3.428428      8.302935      8.302935     16.605870
     -3.418418      9.880979      9.880979     19.761958
     -3.408408     11.280833     11.280833     22.561665
     -3.398398     12.244051     12.244051     24.488101
     -3.388388     12.730128     12.730128     25.460256
     -3.378378     12.953374     12.953374     25.906748
     -3.368368     13.327531     13.327531     26.655061
     -3.358358     14.334531     14.334531     28.669062
     -3.348348     16.366120     16.366120     32.732239
     -3.338338     19.591464     19.591464     39.182929
     -3.328328     23.882429     23.882429     47.764858
     -3.318318     28.802468     28.802468     57.604937
     -3.308308     33.655776     33.655776     67.311552
     -3.298298     37.599147     37.599147     75.198294
     -3.288288     39.818093     39.818093     79.636185
     -3.278278     39.742577     39.742577     79.485154
     -3.268268     37.236880     37.236880     74.473759
     -3.258258     32.679178     32.679178     65.358356
     -3.248248     26.879068     26.879068     53.758136
     -3.238238     20.854801     20.854801     41.709602
     -3.228228     15.558956     15.558956     31.117912
     -3.218218     11.656692     11.656692     23.313384
     -3.208208      9.420392      9.420392     18.840784
     -3.198198      8.744504      8.744504     17.489007
     -3.188188      9.246015      9.246015     18.492030
     -3.178178     10.411512     10.411512     20.823024
     -3.168168     11.762210     11.762210     23.524421
     -3.158158     13.009331     13.009331     26.018662
     -3.148148     14.159783     14.159783     28.319566
     -3.138138     15.524618     15.524618     31.049236
     -3.128128     17.601454     17.601454     35.202908
     -3.118118     20.849941     20.849941     41.699881
     -3.108108     25.436006     25.436006     50.872011
     -3.098098     31.054135     31.054135     62.108271
     -3.088088     36.922337     36.922337     73.844675
     -3.078078     41.978464     41.978464     83.956928
     -3.068068     45.213892     45.213892     90.427784
     -3.058058     46.006928     46.006928     92.013857
     -3.048048     44.308792     44.308792     88.617584
     -3.038038     40.603894     40.603894     81.207787
     -3.028028     35.679894     35.679894     71.359789
     -3.018018     30.335490     30.335490     60.670979
     -3.008008     25.169648     25.169648     50.339296
     -2.997998     20.530189     20.530189     41.060378
     -2.987988     16.600616     16.600616     33.201231
     -2.977978     13.536029     13.536029     27.072059
     -2.967968     11.554962     11.554962     23.109924
     -2.957958     10.939758     10.939758     21.879516
     -2.947948     11.953590     11.953590     23.907180
     -2.937938     14.716685     14.716685     29.433370
     -2.927928     19.093219     19.093219     38.186438
     -2.917918     24.634589     24.634589     49.269177
     -2.907908     30.611774     30.611774     61.223548
     -2.897898     36.146596     36.146596     72.293193
     -2.887888     40.416536     40.416536     80.833071
     -2.877878     42.870174     42.870174     85.740347
     -2.867868     43.371453     43.371453     86.742905
     -2.857858     42.208743     42.208743     84.417485
     -2.847848     39.958147     39.958147     79.916294
     -2.837838     37.255960     37.255960     74.511920
     -2.827828     34.578434     34.578434     69.156867
     -2.817818     32.123081     32.123081     64.246161
     -2.807808     29.834379     29.834379     59.668759
     -2.797798     27.544034     27.544034     55.088068
     -2.787788     25.140562     25.140562     50.281124
     -2.777778     22.674710     22.674710     45.349421
     -2.767768     20.350006     20.350006     40.700012
     -2.757758     18.416836     18.416836     36.833672
     -2.747748     17.043915     17.043915     34.087830
     -2.737738     16.250176     16.250176     32.500352
     -2.727728     15.937408     15.937408     31.874815
     -2.717718     15.995641     15.995641     31.991283
     -2.707708     16.403238     16.403238     32.806475
     -2.697698     17.246010     17.246010     34.492020
     -2.687688     18.635434     18.635434     37.270867
     -2.677678     20.579109     20.579109     41.158217
     -2.667668     22.896703     22.896703     45.793407
     -2.657658     25.250662     25.250662     50.501323
     -2.647648     27.285651     27.285651     54.571302
     -2.637638     28.794566     28.794566     57.589132
     -2.627628     29.806521     29.806521     59.613042
     -2.617618     30.541984     30.541984     61.083968
     -2.607608     31.267489     31.267489     62.534978
     -2.597598     32.143801     32.143801     64.287603
     -2.587588     33.153543     33.153543     66.307085
     -2.577578     34.128684     34.128684     68.257367
     -2.567568     34.831184     34.831184     69.662368
     -2.557558     35.023703     35.023703     70.047407
     -2.547548     34.505701     34.505701     69.011402
     -2.537538     33.139024     33.139024     66.278048
     -2.527528     30.897203     30.897203     61.794406
     -2.517518     27.936088     27.936088     55.872176
     -2.507508     24.637819     24.637819     49.275638
     -2.497497     21.571446     21.571446     43.142892
     -2.487487     19.354378     19.354378     38.708755
     -2.477477     18.460237     18.460237     36.920473
     -2.467467     19.057618     19.057618     38.115235
     -2.457457     20.956393     20.956393     41.912787
     -2.447447     23.690068     23.690068     47.380135
     -2.437437     26.700638     26.700638     53.401275
     -2.427427     29.545783     29.545783     59.091566
     -2.417417     32.037056     32.037056     64.074112
     -2.407407     34.247197     34.247197     68.494393
     -2.397397     36.383081     36.383081     72.766163
     -2.387387     38.583584     38.583584     77.167167
     -2.377377     40.741081     40.741081     81.482162
     -2.367367     42.441972     42.441972     84.883944
     -2.357357     43.072265     43.072265     86.144530
     -2.347347     42.056515     42.056515     84.113029
     -2.337337     39.127655     39.127655     78.255310
     -2.327327     34.501315     34.501315     69.002630
     -2.317317     28.870082     28.870082     57.740163
     -2.307307     23.220608     23.220608     46.441217
     -2.297297     18.558318     18.558318     37.116636
     -2.287287     15.653964     15.653964     31.307929
     -2.277277     14.894807     14.894807     29.789614
     -2.267267     16.261589     16.261589     32.523178
     -2.257257     19.402060     19.402060     38.804121
     -2.247247     23.752743     23.752743     47.505486
     -2.237237     28.666225     28.666225     57.332450
     -2.227227     33.515064     33.515064     67.030129
     -2.217217     37.756972     37.756972     75.513944
     -2.207207     40.960805     40.960805     81.921610
     -2.197197     42.809753     42.809753     85.619507
     -2.187187     43.108597     43.108597     86.217193
     -2.177177     41.814143     41.814143     83.628287
     -2.167167     39.080255     39.080255     78.160511
     -2.157157     35.278426     35.278426     70.556853
     -2.147147     30.948960     30.948960     61.897920
     -2.137137     26.670484     26.670484     53.340969
     -2.127127     22.890574     22.890574     45.781147
     -2.117117     19.797917     19.797917     39.595835
     -2.107107     17.304300     17.304300     34.608600
     -2.097097     15.145632     15.145632     30.291263
     -2.087087     13.044457     13.044457     26.088913
     -2.077077     10.846848     10.846848     21.693696
     -2.067067      8.571360      8.571360     17.142721
     -2.057057      6.364866      6.364866     12.729731
     -2.047047      4.409356      4.409356      8.818712
     -2.037037      2.837292      2.837292      5.674584
     -2.027027      1.691923      1.691923      3.383845
     -2.017017      0.935447      0.935447      1.870895
     -2.007007      0.484833      0.484833      0.969665
     -1.996997      0.251250      0.251250      0.502499
     -1.986987      0.168724      0.168724      0.337449
     -1.976977      0.209471      0.209471      0.418943
     -1.966967      0.389726      0.389726      0.779452
     -1.956957      0.769266      0.769266      1.538532
     -1.946947      1.443408      1.443408      2.886815
     -1.936937      2.522975      2.522975      5.045951
     -1.926927      4.099602      4.099602      8.199205
     -1.916917      6.201548      6.201548     12.403096
     -1.906907      8.755150      8.755150     17.510300
     -1.896897     11.571606     11.571606     23.143213
     -1.886887     14.372224     14.372224     28.744448
     -1.876877     16.849313     16.849313     33.698626
     -1.866867     18.744135     18.744135     37.488269
     -1.856857     19.917405     19.917405     39.834811
     -1.846847     20.392688     20.392688     40.785376
     -1.836837     20.360737     20.360737     40.721475
     -1.826827     20.137402     20.137402     40.274803
     -1.816817     20.073238     20.073238     40.146476
     -1.806807     20.428826     20.428826     40.857652
     -1.796797     21.255155     21.255155     42.510309
     -1.786787     22.335623     22.335623     44.671246
     -1.776777     23.233383     23.233383     46.466765
     -1.766767     23.441394     23.441394     46.882788
     -1.756757     22.576803     22.576803     45.153606
     -1.746747     20.532635     20.532635     41.065270
     -1.736737     17.519456     17.519456     35.038911
     -1.726727     13.986542     13.986542     27.973084
     -1.716717     10.470686     10.470686     20.941372
     -1.706707      7.446824      7.446824     14.893649
     -1.696697      5.237547      5.237547     10.475094
     -1.686687      3.995139      3.995139      7.990278
     -1.676677      3.729879      3.729879      7.459759
     -1.666667      4.344332      4.344332      8.688664
     -1.656657      5.648636      5.648636     11.297272
     -1.646647      7.361681      7.361681     14.723363
     -1.636637      9.125504      9.125504     18.251007
     -1.626627     10.559168     10.559168     21.118336
