# EIG2DOS: Utility for SIESTA to obtain the electronic density of states
#  E. Artacho, Apr 1999, A. Garcia, Apr 2012
#  Nick R. Papior, Feb 2017
# ------------------------------------------
# Eigenvalues calculated from a non-polarized calculation
# Eigenvalues read from siesta.EIG
# Kpoint weights read from siesta.KP
# Using smearing parameter:   0.0500
# Using 1000 points in the energy range
# Selected bands: 1 to: 2981
# Emin, Emax in file for selected band(s):    -27.2441675    218.3573160
# Nbands, Nspin, Nk   =   2981     1     1
# E_F                 =    -4.2471 eV --> (shifted to ZERO)
# Broadening          =     0.0500 eV
#
#        E            N(up)  (=)   N(down)         Ntot
     -5.000000     33.131360     33.131360     66.262720
     -4.989990     37.237379     37.237379     74.474759
     -4.979980     40.859775     40.859775     81.719550
     -4.969970     43.447709     43.447709     86.895418
     -4.959960     44.562444     44.562444     89.124889
     -4.949950     44.019207     44.019207     88.038413
     -4.939940     41.958682     41.958682     83.917363
     -4.929930     38.830908     38.830908     77.661816
     -4.919920     35.313948     35.313948     70.627895
     -4.909910     32.204222     32.204222     64.408445
     -4.899900     30.298807     30.298807     60.597614
     -4.889890     30.262877     30.262877     60.525755
     -4.879880     32.470642     32.470642     64.941284
     -4.869870     36.840906     36.840906     73.681813
     -4.859860     42.737796     42.737796     85.475593
     -4.849850     49.025975     49.025975     98.051949
     -4.839840     54.323106     54.323106    108.646211
     -4.829830     57.392781     57.392781    114.785561
     -4.819820     57.528354     57.528354    115.056707
     -4.809810     54.759255     54.759255    109.518511
     -4.799800     49.789111     49.789111     99.578221
     -4.789790     43.706177     43.706177     87.412355
     -4.779780     37.610485     37.610485     75.220971
     -4.769770     32.318474     32.318474     64.636948
     -4.759760     28.236970     28.236970     56.473940
     -4.749750     25.399917     25.399917     50.799835
     -4.739740     23.595562     23.595562     47.191125
     -4.729730     22.503737     22.503737     45.007474
     -4.719720     21.794961     21.794961     43.589922
     -4.709710     21.182767     21.182767     42.365534
     -4.699700     20.446950     20.446950     40.893901
     -4.689690     19.453568     19.453568     38.907137
     -4.679680     18.189473     18.189473     36.378947
     -4.669670     16.808773     16.808773     33.617545
     -4.659660     15.665226     15.665226     31.330452
     -4.649650     15.292883     15.292883     30.585765
     -4.639640     16.308171     16.308171     32.616342
     -4.629630     19.238192     19.238192     38.476384
     -4.619620     24.317909     24.317909     48.635819
     -4.609610     31.325919     31.325919     62.651838
     -4.599600     39.531400     39.531400     79.062801
     -4.589590     47.798177     47.798177     95.596353
     -4.579580     54.839775     54.839775    109.679550
     -4.569570     59.558879     59.558879    119.117757
     -4.559560     61.361559     61.361559    122.723118
     -4.549550     60.333959     60.333959    120.667919
     -4.539540     57.212143     57.212143    114.424287
     -4.529530     53.148568     53.148568    106.297136
     -4.519520     49.352159     49.352159     98.704317
     -4.509510     46.724951     46.724951     93.449902
     -4.499499     45.619076     45.619076     91.238151
     -4.489489     45.791978     45.791978     91.583956
     -4.479479     46.561520     46.561520     93.123041
     -4.469469     47.087104     47.087104     94.174209
     -4.459459     46.661432     46.661432     93.322865
     -4.449449     44.908232     44.908232     89.816463
     -4.439439     41.836031     41.836031     83.672061
     -4.429429     37.766376     37.766376     75.532753
     -4.419419     33.201019     33.201019     66.402037
     -4.409409     28.695894     28.695894     57.391787
     -4.399399     24.775981     24.775981     49.551963
     -4.389389     21.882483     21.882483     43.764966
     -4.379379     20.323849     20.323849     40.647699
     -4.369369     20.217384     20.217384     40.434768
     -4.359359     21.442128     21.442128     42.884255
     -4.349349     23.644403     23.644403     47.288805
     -4.339339     26.323139     26.323139     52.646279
     -4.329329     28.979672     28.979672     57.959344
     -4.319319     31.275550     31.275550     62.551100
     -4.309309     33.130644     33.130644     66.261288
     -4.299299     34.718662     34.718662     69.437325
     -4.289289     36.360692     36.360692     72.721384
     -4.279279     38.355577     38.355577     76.711153
     -4.269269     40.806441     40.806441     81.612882
     -4.259259     43.506712     43.506712     87.013423
     -4.249249     45.939002     45.939002     91.878003
     -4.239239     47.410982     47.410982     94.821964
     -4.229229     47.299746     47.299746     94.599491
     -4.219219     45.315345     45.315345     90.630690
     -4.209209     41.662313     41.662313     83.324626
     -4.199199     37.008948     37.008948     74.017896
     -4.189189     32.264433     32.264433     64.528866
     -4.179179     28.264049     28.264049     56.528099
     -4.169169     25.509805     25.509805     51.019611
     -4.159159     24.078381     24.078381     48.156762
     -4.149149     23.716023     23.716023     47.432047
     -4.139139     24.048680     24.048680     48.097360
     -4.129129     24.792386     24.792386     49.584772
     -4.119119     25.864358     25.864358     51.728715
     -4.109109     27.350472     27.350472     54.700944
     -4.099099     29.352991     29.352991     58.705983
     -4.089089     31.800662     31.800662     63.601325
     -4.079079     34.330237     34.330237     68.660474
     -4.069069     36.324838     36.324838     72.649675
     -4.059059     37.118870     37.118870     74.237739
     -4.049049     36.283674     36.283674     72.567348
     -4.039039     33.850062     33.850062     67.700124
     -4.029029     30.347130     30.347130     60.694261
     -4.019019     26.633788     26.633788     53.267575
     -4.009009     23.610497     23.610497     47.220993
     -3.998999     21.953509     21.953509     43.907017
     -3.988989     21.982389     21.982389     43.964778
     -3.978979     23.682937     23.682937     47.365875
     -3.968969     26.824617     26.824617     53.649234
     -3.958959     31.084330     31.084330     62.168659
     -3.948949     36.121707     36.121707     72.243415
     -3.938939     41.607613     41.607613     83.215226
     -3.928929     47.240218     47.240218     94.480436
     -3.918919     52.771637     52.771637    105.543274
     -3.908909     58.031875     58.031875    116.063750
     -3.898899     62.914637     62.914637    125.829273
     -3.888889     67.305637     67.305637    134.611274
     -3.878879     70.978744     70.978744    141.957488
     -3.868869     73.524320     73.524320    147.048641
     -3.858859     74.375895     74.375895    148.751791
     -3.848849     72.958683     72.958683    145.917365
     -3.838839     68.917595     68.917595    137.835191
     -3.828829     62.329719     62.329719    124.659438
     -3.818819     53.798124     53.798124    107.596247
     -3.808809     44.368829     44.368829     88.737658
     -3.798799     35.289249     35.289249     70.578499
     -3.788789     27.694458     27.694458     55.388916
     -3.778779     22.332807     22.332807     44.665614
     -3.768769     19.417274     19.417274     38.834548
     -3.758759     18.634088     18.634088     37.268176
     -3.748749     19.286607     19.286607     38.573215
     -3.738739     20.520270     20.520270     41.040539
     -3.728729     21.565647     21.565647     43.131294
     -3.718719     21.942335     21.942335     43.884670
     -3.708709     21.578288     21.578288     43.156576
     -3.698699     20.815134     20.815134     41.630268
     -3.688689     20.292027     20.292027     40.584054
     -3.678679     20.730167     20.730167     41.460334
     -3.668669     22.673445     22.673445     45.346890
     -3.658659     26.266596     26.266596     52.533192
     -3.648649     31.154340     31.154340     62.308680
     -3.638639     36.550862     36.550862     73.101725
     -3.628629     41.463535     41.463535     82.927069
     -3.618619     44.986373     44.986373     89.972747
     -3.608609     46.547033     46.547033     93.094066
     -3.598599     46.018620     46.018620     92.037240
     -3.588589     43.678351     43.678351     87.356701
     -3.578579     40.063019     40.063019     80.126038
     -3.568569     35.796399     35.796399     71.592799
     -3.558559     31.443273     31.443273     62.886546
     -3.548549     27.410001     27.410001     54.820002
     -3.538539     23.893821     23.893821     47.787642
     -3.528529     20.885179     20.885179     41.770359
     -3.518519     18.228102     18.228102     36.456204
     -3.508509     15.726428     15.726428     31.452856
     -3.498498     13.257589     13.257589     26.515177
     -3.488488     10.845089     10.845089     21.690178
     -3.478478      8.659490      8.659490     17.318980
     -3.468468      6.953653      6.953653     13.907306
     -3.458458      5.966025      5.966025     11.932050
     -3.448448      5.830688      5.830688     11.661376
     -3.438438      6.520685      6.520685     13.041371
     -3.428428      7.837421      7.837421     15.674842
     -3.418418      9.451359      9.451359     18.902718
     -3.408408     10.991634     10.991634     21.983268
     -3.398398     12.166113     12.166113     24.332227
     -3.388388     12.872689     12.872689     25.745378
     -3.378378     13.253862     13.253862     26.507725
     -3.368368     13.664292     13.664292     27.328584
     -3.358358     14.559952     14.559952     29.119904
     -3.348348     16.353720     16.353720     32.707441
     -3.338338     19.290982     19.290982     38.581963
     -3.328328     23.376769     23.376769     46.753537
     -3.318318     28.354775     28.354775     56.709549
     -3.308308     33.725224     33.725224     67.450448
     -3.298298     38.799575     38.799575     77.599151
     -3.288288     42.804260     42.804260     85.608519
     -3.278278     45.036291     45.036291     90.072583
     -3.268268     45.038236     45.038236     90.076472
     -3.258258     42.728004     42.728004     85.456008
     -3.248248     38.424136     38.424136     76.848272
     -3.238238     32.753701     32.753701     65.507402
     -3.228228     26.486001     26.486001     52.972002
     -3.218218     20.362459     20.362459     40.724918
     -3.208208     14.978868     14.978868     29.957737
     -3.198198     10.738807     10.738807     21.477615
     -3.188188      7.863795      7.863795     15.727589
     -3.178178      6.431309      6.431309     12.862617
     -3.168168      6.414662      6.414662     12.829324
     -3.158158      7.710771      7.710771     15.421541
     -3.148148     10.155320     10.155320     20.310639
     -3.138138     13.533070     13.533070     27.066139
     -3.128128     17.589565     17.589565     35.179130
     -3.118118     22.041623     22.041623     44.083245
     -3.108108     26.578162     26.578162     53.156324
     -3.098098     30.850591     30.850591     61.701182
     -3.088088     34.470217     34.470217     68.940433
     -3.078078     37.040734     37.040734     74.081469
     -3.068068     38.238425     38.238425     76.476850
     -3.058058     37.914666     37.914666     75.829332
     -3.048048     36.163548     36.163548     72.327096
     -3.038038     33.303723     33.303723     66.607446
     -3.028028     29.772089     29.772089     59.544178
     -3.018018     25.984781     25.984781     51.969562
     -3.008008     22.243501     22.243501     44.487003
     -2.997998     18.734028     18.734028     37.468056
     -2.987988     15.602254     15.602254     31.204508
     -2.977978     13.046388     13.046388     26.092776
     -2.967968     11.360931     11.360931     22.721861
     -2.957958     10.902395     10.902395     21.804789
     -2.947948     11.989252     11.989252     23.978503
     -2.937938     14.775226     14.775226     29.550453
     -2.927928     19.141726     19.141726     38.283452
     -2.917918     24.650142     24.650142     49.300284
     -2.907908     30.582775     30.582775     61.165550
     -2.897898     36.078882     36.078882     72.157764
     -2.887888     40.338248     40.338248     80.676495
     -2.877878     42.829329     42.829329     85.658658
     -2.867868     43.423279     43.423279     86.846557
     -2.857858     42.395283     42.395283     84.790565
     -2.847848     40.287779     40.287779     80.575559
     -2.837838     37.692209     37.692209     75.384418
     -2.827828     35.044293     35.044293     70.088585
     -2.817818     32.520397     32.520397     65.040795
     -2.807808     30.071216     30.071216     60.142433
     -2.797798     27.559835     27.559835     55.119670
     -2.787788     24.920743     24.920743     49.841487
     -2.777778     22.251509     22.251509     44.503018
     -2.767768     19.791873     19.791873     39.583745
     -2.757758     17.811717     17.811717     35.623434
     -2.747748     16.481621     16.481621     32.963241
     -2.737738     15.807096     15.807096     31.614193
     -2.727728     15.665074     15.665074     31.330148
     -2.717718     15.914036     15.914036     31.828072
     -2.707708     16.499633     16.499633     32.999266
     -2.697698     17.479342     17.479342     34.958683
     -2.687688     18.944621     18.944621     37.889243
     -2.677678     20.892584     20.892584     41.785167
     -2.667668     23.140825     23.140825     46.281649
     -2.657658     25.356606     25.356606     50.713212
     -2.647648     27.196151     27.196151     54.392301
     -2.637638     28.472046     28.472046     56.944092
     -2.627628     29.242468     29.242468     58.484937
     -2.617618     29.764816     29.764816     59.529632
     -2.607608     30.344533     30.344533     60.689066
     -2.597598     31.173757     31.173757     62.347513
     -2.587588     32.249333     32.249333     64.498666
     -2.577578     33.395333     33.395333     66.790665
     -2.567568     34.346126     34.346126     68.692252
     -2.557558     34.825385     34.825385     69.650770
     -2.547548     34.591234     34.591234     69.182468
     -2.537538     33.467118     33.467118     66.934237
     -2.527528     31.392543     31.392543     62.785087
     -2.517518     28.495470     28.495470     56.990941
     -2.507508     25.142363     25.142363     50.284727
     -2.497497     21.908465     21.908465     43.816931
     -2.487487     19.446495     19.446495     38.892990
     -2.477477     18.292170     18.292170     36.584339
     -2.467467     18.688041     18.688041     37.376082
     -2.457457     20.506333     20.506333     41.012666
     -2.447447     23.308973     23.308973     46.617946
     -2.437437     26.521605     26.521605     53.043210
     -2.427427     29.646487     29.646487     59.292973
     -2.417417     32.419849     32.419849     64.839697
     -2.407407     34.842850     34.842850     69.685701
     -2.397397     37.073730     37.073730     74.147459
     -2.387387     39.236301     39.236301     78.472603
     -2.377377     41.243755     41.243755     82.487509
     -2.367367     42.733778     42.733778     85.467556
     -2.357357     43.160341     43.160341     86.320682
     -2.347347     42.011300     42.011300     84.022600
     -2.337337     39.055911     39.055911     78.111821
     -2.327327     34.506654     34.506654     69.013309
     -2.317317     29.018425     29.018425     58.036850
     -2.307307     23.525395     23.525395     47.050791
     -2.297297     18.988471     18.988471     37.976941
     -2.287287     16.155165     16.155165     32.310330
     -2.277277     15.410187     15.410187     30.820374
     -2.267267     16.742903     16.742903     33.485807
     -2.257257     19.811124     19.811124     39.622247
     -2.247247     24.058506     24.058506     48.117012
     -2.237237     28.843019     28.843019     57.686037
     -2.227227     33.544417     33.544417     67.088834
     -2.217217     37.632346     37.632346     75.264692
     -2.207207     40.692953     40.692953     81.385906
     -2.197197     42.429687     42.429687     84.859373
     -2.187187     42.665211     42.665211     85.330422
     -2.177177     41.365101     41.365101     82.730201
     -2.167167     38.678137     38.678137     77.356275
     -2.157157     34.957786     34.957786     69.915572
     -2.147147     30.720658     30.720658     61.441316
     -2.137137     26.526137     26.526137     53.052274
     -2.127127     22.813968     22.813968     45.627935
     -2.117117     19.776168     19.776168     39.552337
     -2.107107     17.332390     17.332390     34.664780
     -2.097097     15.223023     15.223023     30.446046
     -2.087087     13.167821     13.167821     26.335642
     -2.077077     11.004830     11.004830     22.009660
     -2.067067      8.744914      8.744914     17.489828
     -2.057057      6.532462      6.532462     13.064924
     -2.047047      4.553457      4.553457      9.106913
     -2.037037      2.948480      2.948480      5.896960
     -2.027027      1.769215      1.769215      3.538430
     -2.017017      0.983607      0.983607      1.967213
     -2.007007      0.510546      0.510546      1.021092
     -1.996997      0.259741      0.259741      0.519482
     -1.986987      0.161557      0.161557      0.323114
     -1.976977      0.183974      0.183974      0.367949
     -1.966967      0.341190      0.341190      0.682380
     -1.956957      0.698533      0.698533      1.397066
     -1.946947      1.373611      1.373611      2.747221
     -1.936937      2.527966      2.527966      5.055933
     -1.926927      4.341033      4.341033      8.682065
     -1.916917      6.961629      6.961629     13.923258
     -1.906907     10.441917     10.441917     20.883835
     -1.896897     14.671263     14.671263     29.342527
     -1.886887     19.336791     19.336791     38.673582
     -1.876877     23.937498     23.937498     47.874995
     -1.866867     27.866410     27.866410     55.732819
     -1.856857     30.551665     30.551665     61.103330
     -1.846847     31.618886     31.618886     63.237772
     -1.836837     31.015623     31.015623     62.031246
     -1.826827     29.038942     29.038942     58.077884
     -1.816817     26.238932     26.238932     52.477865
     -1.806807     23.226497     23.226497     46.452993
     -1.796797     20.465477     20.465477     40.930954
     -1.786787     18.143119     18.143119     36.286238
     -1.776777     16.174503     16.174503     32.349005
     -1.766767     14.325581     14.325581     28.651163
     -1.756757     12.379424     12.379424     24.758848
     -1.746747     10.257685     10.257685     20.515369
     -1.736737      8.047847      8.047847     16.095694
     -1.726727      5.946358      5.946358     11.892717
     -1.716717      4.169134      4.169134      8.338268
     -1.706707      2.883224      2.883224      5.766448
     -1.696697      2.184468      2.184468      4.368935
     -1.686687      2.110577      2.110577      4.221153
     -1.676677      2.659726      2.659726      5.319451
     -1.666667      3.789138      3.789138      7.578276
     -1.656657      5.389776      5.389776     10.779552
     -1.646647      7.257552      7.257552     14.515104
     -1.636637      9.093522      9.093522     18.187044
     -1.626627     10.556234     10.556234     21.112468
