# EIG2DOS: Utility for SIESTA to obtain the electronic density of states
#  E. Artacho, Apr 1999, A. Garcia, Apr 2012
#  Nick R. Papior, Feb 2017
# ------------------------------------------
# Eigenvalues calculated from a non-polarized calculation
# Eigenvalues read from siesta.EIG
# Kpoint weights read from siesta.KP
# Using smearing parameter:   0.0500
# Using 1000 points in the energy range
# Selected bands: 1 to: 2981
# Emin, Emax in file for selected band(s):    -27.2143634    218.3796630
# Nbands, Nspin, Nk   =   2981     1     1
# E_F                 =    -4.2212 eV --> (shifted to ZERO)
# Broadening          =     0.0500 eV
#
#        E            N(up)  (=)   N(down)         Ntot
     -5.000000     33.557641     33.557641     67.115282
     -4.989990     38.307778     38.307778     76.615555
     -4.979980     42.470541     42.470541     84.941082
     -4.969970     45.326777     45.326777     90.653553
     -4.959960     46.354992     46.354992     92.709985
     -4.949950     45.404785     45.404785     90.809570
     -4.939940     42.750642     42.750642     85.501285
     -4.929930     39.023706     39.023706     78.047411
     -4.919920     35.070779     35.070779     70.141558
     -4.909910     31.798106     31.798106     63.596211
     -4.899900     30.026511     30.026511     60.053021
     -4.889890     30.350042     30.350042     60.700085
     -4.879880     32.989076     32.989076     65.978152
     -4.869870     37.666099     37.666099     75.332198
     -4.859860     43.573686     43.573686     87.147371
     -4.849850     49.502851     49.502851     99.005701
     -4.839840     54.137983     54.137983    108.275965
     -4.829830     56.432481     56.432481    112.864961
     -4.819820     55.917644     55.917644    111.835287
     -4.809810     52.812839     52.812839    105.625677
     -4.799800     47.894745     47.894745     95.789490
     -4.789790     42.195748     42.195748     84.391496
     -4.779780     36.671018     36.671018     73.342036
     -4.769770     31.965630     31.965630     63.931260
     -4.759760     28.342891     28.342891     56.685781
     -4.749750     25.752276     25.752276     51.504552
     -4.739740     23.965530     23.965530     47.931060
     -4.729730     22.707159     22.707159     45.414319
     -4.719720     21.735952     21.735952     43.471903
     -4.709710     20.872785     20.872785     41.745570
     -4.699700     19.998821     19.998821     39.997642
     -4.689690     19.057781     19.057781     38.115562
     -4.679680     18.083401     18.083401     36.166802
     -4.669670     17.244525     17.244525     34.489051
     -4.659660     16.873030     16.873030     33.746060
     -4.649650     17.433923     17.433923     34.867847
     -4.639640     19.419337     19.419337     38.838674
     -4.629630     23.185682     23.185682     46.371363
     -4.619620     28.784143     28.784143     57.568287
     -4.609610     35.845541     35.845541     71.691082
     -4.599600     43.571665     43.571665     87.143330
     -4.589590     50.861360     50.861360    101.722720
     -4.579580     56.561751     56.561751    113.123501
     -4.569570     59.785735     59.785735    119.571471
     -4.559560     60.192488     60.192488    120.384976
     -4.549550     58.117103     58.117103    116.234207
     -4.539540     54.479167     54.479167    108.958333
     -4.529530     50.487361     50.487361    100.974721
     -4.519520     47.246329     47.246329     94.492657
     -4.509510     45.415562     45.415562     90.831124
     -4.499499     45.045684     45.045684     90.091368
     -4.489489     45.639415     45.639415     91.278830
     -4.479479     46.392155     46.392155     92.784310
     -4.469469     46.502327     46.502327     93.004655
     -4.459459     45.429320     45.429320     90.858640
     -4.449449     43.016537     43.016537     86.033074
     -4.439439     39.465608     39.465608     78.931217
     -4.429429     35.211115     35.211115     70.422231
     -4.419419     30.773944     30.773944     61.547889
     -4.409409     26.655250     26.655250     53.310501
     -4.399399     23.286903     23.286903     46.573805
     -4.389389     21.010998     21.010998     42.021995
     -4.379379     20.050208     20.050208     40.100415
     -4.369369     20.457469     20.457469     40.914939
     -4.359359     22.073280     22.073280     44.146560
     -4.349349     24.536684     24.536684     49.073367
     -4.339339     27.374394     27.374394     54.748789
     -4.329329     30.145620     30.145620     60.291240
     -4.319319     32.581627     32.581627     65.163253
     -4.309309     34.655355     34.655355     69.310709
     -4.299299     36.547973     36.547973     73.095947
     -4.289289     38.524759     38.524759     77.049517
     -4.279279     40.768270     40.768270     81.536540
     -4.269269     43.232252     43.232252     86.464504
     -4.259259     45.576695     45.576695     91.153391
     -4.249249     47.224868     47.224868     94.449736
     -4.239239     47.543938     47.543938     95.087876
     -4.229229     46.095690     46.095690     92.191379
     -4.219219     42.855347     42.855347     85.710694
     -4.209209     38.289752     38.289752     76.579504
     -4.199199     33.240252     33.240252     66.480505
     -4.189189     28.649880     28.649880     57.299759
     -4.179179     25.254945     25.254945     50.509890
     -4.169169     23.378566     23.378566     46.757132
     -4.159159     22.908472     22.908472     45.816944
     -4.149149     23.448774     23.448774     46.897549
     -4.139139     24.556708     24.556708     49.113416
     -4.129129     25.945683     25.945683     51.891366
     -4.119119     27.560989     27.560989     55.121978
     -4.109109     29.498280     29.498280     58.996560
     -4.099099     31.812360     31.812360     63.624720
     -4.089089     34.324685     34.324685     68.649370
     -4.079079     36.550935     36.550935     73.101871
     -4.069069     37.816859     37.816859     75.633719
     -4.059059     37.528062     37.528062     75.056125
     -4.049049     35.463105     35.463105     70.926210
     -4.039039     31.933024     31.933024     63.866049
     -4.029029     27.717942     27.717942     55.435885
     -4.019019     23.812645     23.812645     47.625290
     -4.009009     21.110463     21.110463     42.220927
     -3.998999     20.170394     20.170394     40.340787
     -3.988989     21.146718     21.146718     42.293437
     -3.978979     23.865201     23.865201     47.730403
     -3.968969     27.966356     27.966356     55.932711
     -3.958959     33.033907     33.033907     66.067814
     -3.948949     38.670528     38.670528     77.341056
     -3.938939     44.531374     44.531374     89.062748
     -3.928929     50.343065     50.343065    100.686130
     -3.918919     55.916962     55.916962    111.833924
     -3.908909     61.137973     61.137973    122.275946
     -3.898899     65.906888     65.906888    131.813776
     -3.888889     70.044889     70.044889    140.089777
     -3.878879     73.209991     73.209991    146.419982
     -3.868869     74.890623     74.890623    149.781245
     -3.858859     74.512717     74.512717    149.025435
     -3.848849     71.637358     71.637358    143.274717
     -3.838839     66.171603     66.171603    132.343207
     -3.828829     58.497982     58.497982    116.995964
     -3.818819     49.457816     49.457816     98.915632
     -3.808809     40.183493     40.183493     80.366986
     -3.798799     31.834633     31.834633     63.669265
     -3.788789     25.326037     25.326037     50.652075
     -3.778779     21.131230     21.131230     42.262459
     -3.768769     19.212589     19.212589     38.425179
     -3.758759     19.085923     19.085923     38.171846
     -3.748749     19.990636     19.990636     39.981272
     -3.738739     21.114918     21.114918     42.229837
     -3.728729     21.818638     21.818638     43.637277
     -3.718719     21.801138     21.801138     43.602277
     -3.708709     21.173553     21.173553     42.347105
     -3.698699     20.414237     20.414237     40.828473
     -3.688689     20.211508     20.211508     40.423015
     -3.678679     21.228856     21.228856     42.457712
     -3.668669     23.858001     23.858001     47.716001
     -3.658659     28.042162     28.042162     56.084324
     -3.648649     33.240745     33.240745     66.481490
     -3.638639     38.560888     38.560888     77.121776
     -3.628629     43.014070     43.014070     86.028140
     -3.618619     45.799971     45.799971     91.599941
     -3.608609     46.508970     46.508970     93.017940
     -3.598599     45.178460     45.178460     90.356920
     -3.588589     42.209507     42.209507     84.419013
     -3.578579     38.204645     38.204645     76.409289
     -3.568569     33.796946     33.796946     67.593892
     -3.558559     29.514310     29.514310     59.028620
     -3.548549     25.693365     25.693365     51.386730
     -3.538539     22.446533     22.446533     44.893066
     -3.528529     19.687674     19.687674     39.375348
     -3.518519     17.215517     17.215517     34.431034
     -3.508509     14.831893     14.831893     29.663785
     -3.498498     12.449247     12.449247     24.898493
     -3.488488     10.141599     10.141599     20.283198
     -3.478478      8.120100      8.120100     16.240200
     -3.468468      6.650504      6.650504     13.301007
     -3.458458      5.951284      5.951284     11.902568
     -3.448448      6.109500      6.109500     12.219001
     -3.438438      7.037291      7.037291     14.074583
     -3.428428      8.479513      8.479513     16.959027
     -3.418418     10.075375     10.075375     20.150749
     -3.408408     11.465932     11.465932     22.931865
     -3.398398     12.420155     12.420155     24.840310
     -3.388388     12.934032     12.934032     25.868063
     -3.378378     13.257353     13.257353     26.514706
     -3.368368     13.829446     13.829446     27.658891
     -3.358358     15.145658     15.145658     30.291317
     -3.348348     17.604836     17.604836     35.209672
     -3.338338     21.386570     21.386570     42.773139
     -3.328328     26.381866     26.381866     52.763732
     -3.318318     32.176585     32.176585     64.353170
     -3.308308     38.083403     38.083403     76.166806
     -3.298298     43.230331     43.230331     86.460662
     -3.288288     46.716730     46.716730     93.433461
     -3.278278     47.822153     47.822153     95.644307
     -3.268268     46.210024     46.210024     92.420048
     -3.258258     42.043381     42.043381     84.086762
     -3.248248     35.952891     35.952891     71.905782
     -3.238238     28.861725     28.861725     57.723449
     -3.228228     21.738095     21.738095     43.476190
     -3.218218     15.373502     15.373502     30.747004
     -3.208208     10.261076     10.261076     20.522151
     -3.198198      6.594654      6.594654     13.189309
     -3.188188      4.358205      4.358205      8.716411
     -3.178178      3.448989      3.448989      6.897977
     -3.168168      3.779418      3.779418      7.558835
     -3.158158      5.322168      5.322168     10.644336
     -3.148148      8.089101      8.089101     16.178202
     -3.138138     12.058916     12.058916     24.117833
     -3.128128     17.086385     17.086385     34.172770
     -3.118118     22.833676     22.833676     45.667352
     -3.108108     28.758999     28.758999     57.517999
     -3.098098     34.179900     34.179900     68.359800
     -3.088088     38.402726     38.402726     76.805452
     -3.078078     40.883428     40.883428     81.766857
     -3.068068     41.366624     41.366624     82.733248
     -3.058058     39.948725     39.948725     79.897450
     -3.048048     37.033471     37.033471     74.066941
     -3.038038     33.191714     33.191714     66.383429
     -3.028028     28.983638     28.983638     57.967276
     -3.018018     24.822972     24.822972     49.645944
     -3.008008     20.940965     20.940965     41.881930
     -2.997998     17.452217     17.452217     34.904435
     -2.987988     14.469452     14.469452     28.938904
     -2.977978     12.194079     12.194079     24.388159
     -2.967968     10.931888     10.931888     21.863776
     -2.957958     11.027241     11.027241     22.054483
     -2.947948     12.745588     12.745588     25.491177
     -2.937938     16.148904     16.148904     32.297807
     -2.927928     21.006786     21.006786     42.013573
     -2.917918     26.777338     26.777338     53.554676
     -2.907908     32.678452     32.678452     65.356903
     -2.897898     37.846621     37.846621     75.693242
     -2.887888     41.546711     41.546711     83.093421
     -2.877878     43.364990     43.364990     86.729980
     -2.867868     43.309574     43.309574     86.619148
     -2.857858     41.770400     41.770400     83.540800
     -2.847848     39.348578     39.348578     78.697157
     -2.837838     36.625772     36.625772     73.251545
     -2.827828     33.974767     33.974767     67.949534
     -2.817818     31.492612     31.492612     62.985224
     -2.807808     29.075000     29.075000     58.150000
     -2.797798     26.578021     26.578021     53.156041
     -2.787788     23.971460     23.971460     47.942920
     -2.777778     21.399934     21.399934     42.799869
     -2.767768     19.126547     19.126547     38.253095
     -2.757758     17.403794     17.403794     34.807589
     -2.747748     16.356766     16.356766     32.713532
     -2.737738     15.950664     15.950664     31.901327
     -2.727728     16.056551     16.056551     32.113101
     -2.717718     16.562891     16.562891     33.125781
     -2.707708     17.449445     17.449445     34.898890
     -2.697698     18.767127     18.767127     37.534254
     -2.687688     20.536459     20.536459     41.072918
     -2.677678     22.641291     22.641291     45.282583
     -2.667668     24.805928     24.805928     49.611856
     -2.657658     26.690088     26.690088     53.380175
     -2.647648     28.052087     28.052087     56.104174
     -2.637638     28.876580     28.876580     57.753161
     -2.627628     29.380759     29.380759     58.761518
     -2.617618     29.891540     29.891540     59.783080
     -2.607608     30.669213     30.669213     61.338425
     -2.597598     31.780484     31.780484     63.560967
     -2.587588     33.079962     33.079962     66.159924
     -2.577578     34.283299     34.283299     68.566598
     -2.567568     35.067599     35.067599     70.135198
     -2.557558     35.145727     35.145727     70.291455
     -2.547548     34.308810     34.308810     68.617620
     -2.537538     32.465669     32.465669     64.931337
     -2.527528     29.698164     29.698164     59.396329
     -2.517518     26.311488     26.311488     52.622977
     -2.507508     22.830382     22.830382     45.660765
     -2.497497     19.905951     19.905951     39.811902
     -2.487487     18.145891     18.145891     36.291782
     -2.477477     17.929370     17.929370     35.858741
     -2.467467     19.284883     19.284883     38.569765
     -2.457457     21.886676     21.886676     43.773351
     -2.447447     25.176240     25.176240     50.352479
     -2.437437     28.562522     28.562522     57.125044
     -2.427427     31.619437     31.619437     63.238873
     -2.417417     34.196782     34.196782     68.393564
     -2.407407     36.394783     36.394783     72.789566
     -2.397397     38.412339     38.412339     76.824678
     -2.387387     40.340424     40.340424     80.680847
     -2.377377     42.005969     42.005969     84.011938
     -2.367367     42.956920     42.956920     85.913841
     -2.357357     42.615316     42.615316     85.230631
     -2.347347     40.538500     40.538500     81.077000
     -2.337337     36.665114     36.665114     73.330228
     -2.327327     31.422909     31.422909     62.845819
     -2.317317     25.644528     25.644528     51.289057
     -2.307307     20.334419     20.334419     40.668838
     -2.297297     16.395577     16.395577     32.791154
     -2.287287     14.424106     14.424106     28.848212
     -2.277277     14.625496     14.625496     29.250991
     -2.267267     16.842758     16.842758     33.685517
     -2.257257     20.650130     20.650130     41.300259
     -2.247247     25.464613     25.464613     50.929225
     -2.237237     30.645249     30.645249     61.290497
     -2.227227     35.568381     35.568381     71.136762
     -2.217217     39.679052     39.679052     79.358103
     -2.207207     42.526066     42.526066     85.052132
     -2.197197     43.792893     43.792893     87.585787
     -2.187187     43.334960     43.334960     86.669919
     -2.177177     41.221269     41.221269     82.442537
     -2.167167     37.758015     37.758015     75.516031
     -2.157157     33.459155     33.459155     66.918310
     -2.147147     28.941577     28.941577     57.883154
     -2.137137     24.762685     24.762685     49.525370
     -2.127127     21.262676     21.262676     42.525352
     -2.117117     18.487565     18.487565     36.975129
     -2.107107     16.234211     16.234211     32.468422
     -2.097097     14.193385     14.193385     28.386770
     -2.087087     12.114384     12.114384     24.228769
     -2.077077      9.909717      9.909717     19.819435
     -2.067067      7.661086      7.661086     15.322172
     -2.057057      5.546111      5.546111     11.092222
     -2.047047      3.741160      3.741160      7.482321
     -2.037037      2.353041      2.353041      4.706082
     -2.027027      1.402845      1.402845      2.805690
     -2.017017      0.853480      0.853480      1.706960
     -2.007007      0.655993      0.655993      1.311986
     -1.996997      0.790542      0.790542      1.581084
     -1.986987      1.287156      1.287156      2.574311
     -1.976977      2.220556      2.220556      4.441113
     -1.966967      3.680116      3.680116      7.360232
     -1.956957      5.722679      5.722679     11.445358
     -1.946947      8.323819      8.323819     16.647638
     -1.936937     11.348332     11.348332     22.696664
     -1.926927     14.557120     14.557120     29.114240
     -1.916917     17.652912     17.652912     35.305825
     -1.906907     20.347962     20.347962     40.695925
     -1.896897     22.425192     22.425192     44.850385
     -1.886887     23.768898     23.768898     47.537796
     -1.876877     24.359706     24.359706     48.719412
     -1.866867     24.248674     24.248674     48.497349
     -1.856857     23.533671     23.533671     47.067342
     -1.846847     22.351972     22.351972     44.703945
     -1.836837     20.882862     20.882862     41.765724
     -1.826827     19.338181     19.338181     38.676361
     -1.816817     17.921741     17.921741     35.843483
     -1.806807     16.762402     16.762402     33.524804
     -1.796797     15.854514     15.854514     31.709027
     -1.786787     15.048935     15.048935     30.097870
     -1.776777     14.114571     14.114571     28.229141
     -1.766767     12.847003     12.847003     25.694007
     -1.756757     11.168431     11.168431     22.336861
     -1.746747      9.166735      9.166735     18.333470
     -1.736737      7.058822      7.058822     14.117644
     -1.726727      5.107074      5.107074     10.214149
     -1.716717      3.538203      3.538203      7.076407
     -1.706707      2.501243      2.501243      5.002487
     -1.696697      2.069628      2.069628      4.139256
     -1.686687      2.264592      2.264592      4.529183
     -1.676677      3.069410      3.069410      6.138820
     -1.666667      4.417593      4.417593      8.835187
     -1.656657      6.162689      6.162689     12.325377
     -1.646647      8.057814      8.057814     16.115629
     -1.636637      9.776370      9.776370     19.552740
     -1.626627     10.986964     10.986964     21.973927
