# EIG2DOS: Utility for SIESTA to obtain the electronic density of states
#  E. Artacho, Apr 1999, A. Garcia, Apr 2012
#  Nick R. Papior, Feb 2017
# ------------------------------------------
# Eigenvalues calculated from a non-polarized calculation
# Eigenvalues read from siesta.EIG
# Kpoint weights read from siesta.KP
# Using smearing parameter:   0.0500
# Using 1000 points in the energy range
# Selected bands: 1 to: 2981
# Emin, Emax in file for selected band(s):    -27.0359342    218.3074460
# Nbands, Nspin, Nk   =   2981     1     1
# E_F                 =    -4.3148 eV --> (shifted to ZERO)
# Broadening          =     0.0500 eV
#
#        E            N(up)  (=)   N(down)         Ntot
     -5.000000     44.314502     44.314502     88.629004
     -4.989990     48.463774     48.463774     96.927549
     -4.979980     51.134029     51.134029    102.268058
     -4.969970     52.012108     52.012108    104.024216
     -4.959960     51.064777     51.064777    102.129553
     -4.949950     48.537159     48.537159     97.074317
     -4.939940     44.886484     44.886484     89.772968
     -4.929930     40.692723     40.692723     81.385445
     -4.919920     36.588437     36.588437     73.176874
     -4.909910     33.222158     33.222158     66.444316
     -4.899900     31.231003     31.231003     62.462006
     -4.889890     31.174878     31.174878     62.349755
     -4.879880     33.398438     33.398438     66.796876
     -4.869870     37.841834     37.841834     75.683668
     -4.859860     43.890035     43.890035     87.780069
     -4.849850     50.381743     50.381743    100.763485
     -4.839840     55.850334     55.850334    111.700667
     -4.829830     58.949463     58.949463    117.898927
     -4.819820     58.894072     58.894072    117.788144
     -4.809810     55.711095     55.711095    111.422191
     -4.799800     50.180814     50.180814    100.361629
     -4.789790     43.510176     43.510176     87.020352
     -4.779780     36.909489     36.909489     73.818978
     -4.769770     31.263783     31.263783     62.527566
     -4.759760     27.002617     27.002617     54.005235
     -4.749750     24.151569     24.151569     48.303137
     -4.739740     22.474917     22.474917     44.949834
     -4.729730     21.619168     21.619168     43.238335
     -4.719720     21.211706     21.211706     42.423412
     -4.709710     20.913110     20.913110     41.826221
     -4.699700     20.442793     20.442793     40.885587
     -4.689690     19.599172     19.599172     39.198345
     -4.679680     18.287982     18.287982     36.575963
     -4.669670     16.560243     16.560243     33.120485
     -4.659660     14.647145     14.647145     29.294291
     -4.649650     12.968863     12.968863     25.937727
     -4.639640     12.095013     12.095013     24.190025
     -4.629630     12.646097     12.646097     25.292193
     -4.619620     15.142226     15.142226     30.284451
     -4.609610     19.824224     19.824224     39.648449
     -4.599600     26.493632     26.493632     52.987264
     -4.589590     34.437451     34.437451     68.874903
     -4.579580     42.503405     42.503405     85.006811
     -4.569570     49.352022     49.352022     98.704044
     -4.559560     53.834494     53.834494    107.668988
     -4.549550     55.365884     55.365884    110.731768
     -4.539540     54.134811     54.134811    108.269622
     -4.529530     51.044182     51.044182    102.088364
     -4.519520     47.393367     47.393367     94.786734
     -4.509510     44.429044     44.429044     88.858088
     -4.499499     42.946245     42.946245     85.892490
     -4.489489     43.087515     43.087515     86.175030
     -4.479479     44.391434     44.391434     88.782868
     -4.469469     46.036641     46.036641     92.073281
     -4.459459     47.163374     47.163374     94.326748
     -4.449449     47.150657     47.150657     94.301313
     -4.439439     45.770096     45.770096     91.540193
     -4.429429     43.196585     43.196585     86.393170
     -4.419419     39.904795     39.904795     79.809591
     -4.409409     36.505255     36.505255     73.010510
     -4.399399     33.575617     33.575617     67.151234
     -4.389389     31.529501     31.529501     63.059001
     -4.379379     30.545930     30.545930     61.091859
     -4.369369     30.563679     30.563679     61.127358
     -4.359359     31.330589     31.330589     62.661178
     -4.349349     32.489438     32.489438     64.978875
     -4.339339     33.678547     33.678547     67.357093
     -4.329329     34.625090     34.625090     69.250181
     -4.319319     35.210945     35.210945     70.421891
     -4.309309     35.495850     35.495850     70.991700
     -4.299299     35.691850     35.691850     71.383700
     -4.289289     36.094558     36.094558     72.189115
     -4.279279     36.985798     36.985798     73.971596
     -4.269269     38.526654     38.526654     77.053308
     -4.259259     40.663924     40.663924     81.327848
     -4.249249     43.081018     43.081018     86.162037
     -4.239239     45.229824     45.229824     90.459649
     -4.229229     46.465470     46.465470     92.930940
     -4.219219     46.260886     46.260886     92.521772
     -4.209209     44.420694     44.420694     88.841387
     -4.199199     41.187422     41.187422     82.374844
     -4.189189     37.171374     37.171374     74.342749
     -4.179179     33.126733     33.126733     66.253465
     -4.169169     29.683265     29.683265     59.366531
     -4.159159     27.165609     27.165609     54.331217
     -4.149149     25.576585     25.576585     51.153169
     -4.139139     24.727781     24.727781     49.455562
     -4.129129     24.428167     24.428167     48.856334
     -4.119119     24.624032     24.624032     49.248064
     -4.109109     25.417972     25.417972     50.835944
     -4.099099     26.957856     26.957856     53.915711
     -4.089089     29.253412     29.253412     58.506825
     -4.079079     32.023782     32.023782     64.047565
     -4.069069     34.678957     34.678957     69.357914
     -4.059059     36.478521     36.478521     72.957042
     -4.049049     36.812989     36.812989     73.625978
     -4.039039     35.471932     35.471932     70.943864
     -4.029029     32.756739     32.756739     65.513478
     -4.019019     29.377414     29.377414     58.754827
     -4.009009     26.193063     26.193063     52.386125
     -3.998999     23.935583     23.935583     47.871166
     -3.988989     23.045249     23.045249     46.090499
     -3.978979     23.660829     23.660829     47.321659
     -3.968969     25.711647     25.711647     51.423294
     -3.958959     29.019299     29.019299     58.038599
     -3.948949     33.348742     33.348742     66.697483
     -3.938939     38.413981     38.413981     76.827962
     -3.928929     43.885555     43.885555     87.771109
     -3.918919     49.435194     49.435194     98.870389
     -3.908909     54.804512     54.804512    109.609024
     -3.898899     59.844593     59.844593    119.689186
     -3.888889     64.477900     64.477900    128.955800
     -3.878879     68.583158     68.583158    137.166316
     -3.868869     71.864927     71.864927    143.729854
     -3.858859     73.800142     73.800142    147.600284
     -3.848849     73.728751     73.728751    147.457502
     -3.838839     71.082182     71.082182    142.164365
     -3.828829     65.660043     65.660043    131.320087
     -3.818819     57.822121     57.822121    115.644243
     -3.808809     48.490241     48.490241     96.980481
     -3.798799     38.941501     38.941501     77.883002
     -3.788789     30.471513     30.471513     60.943025
     -3.778779     24.058946     24.058946     48.117892
     -3.768769     20.148158     20.148158     40.296316
     -3.758759     18.604565     18.604565     37.209130
     -3.748749     18.829207     18.829207     37.658415
     -3.738739     19.976009     19.976009     39.952018
     -3.728729     21.203579     21.203579     42.407158
     -3.718719     21.900898     21.900898     43.801797
     -3.708709     21.839436     21.839436     43.678873
     -3.698699     21.218384     21.218384     42.436768
     -3.688689     20.587916     20.587916     41.175833
     -3.678679     20.661702     20.661702     41.323405
     -3.668669     22.063383     22.063383     44.126766
     -3.658659     25.082794     25.082794     50.165588
     -3.648649     29.529689     29.529689     59.059379
     -3.638639     34.749605     34.749605     69.499211
     -3.628629     39.806901     39.806901     79.613802
     -3.618619     43.766922     43.766922     87.533845
     -3.608609     45.963011     45.963011     91.926022
     -3.598599     46.145898     46.145898     92.291795
     -3.588589     44.477676     44.477676     88.955352
     -3.578579     41.407728     41.407728     82.815455
     -3.568569     37.506269     37.506269     75.012538
     -3.558559     33.318392     33.318392     66.636785
     -3.548549     29.263928     29.263928     58.527856
     -3.538539     25.583264     25.583264     51.166529
     -3.528529     22.328639     22.328639     44.657278
     -3.518519     19.406097     19.406097     38.812193
     -3.508509     16.663374     16.663374     33.326748
     -3.498498     13.994611     13.994611     27.989223
     -3.488488     11.416739     11.416739     22.833477
     -3.478478      9.083147      9.083147     18.166293
     -3.468468      7.232303      7.232303     14.464606
     -3.458458      6.098914      6.098914     12.197829
     -3.448448      5.824899      5.824899     11.649798
     -3.438438      6.398463      6.398463     12.796927
     -3.428428      7.636433      7.636433     15.272866
     -3.418418      9.216887      9.216887     18.433774
     -3.408408     10.761882     10.761882     21.523763
     -3.398398     11.954880     11.954880     23.909759
     -3.388388     12.656263     12.656263     25.312525
     -3.378378     12.968548     12.968548     25.937095
     -3.368368     13.216401     13.216401     26.432802
     -3.358358     13.843716     13.843716     27.687433
     -3.348348     15.268774     15.268774     30.537548
     -3.338338     17.752576     17.752576     35.505152
     -3.328328     21.317006     21.317006     42.634013
     -3.318318     25.717083     25.717083     51.434167
     -3.308308     30.454332     30.454332     60.908663
     -3.298298     34.828350     34.828350     69.656701
     -3.288288     38.042568     38.042568     76.085135
     -3.278278     39.375261     39.375261     78.750522
     -3.268268     38.386182     38.386182     76.772363
     -3.258258     35.080325     35.080325     70.160651
     -3.248248     29.941103     29.941103     59.882205
     -3.238238     23.797589     23.797589     47.595178
     -3.228228     17.575844     17.575844     35.151687
     -3.218218     12.043691     12.043691     24.087382
     -3.208208      7.652395      7.652395     15.304790
     -3.198198      4.517494      4.517494      9.034988
     -3.188188      2.510791      2.510791      5.021583
     -3.178178      1.398110      1.398110      2.796220
     -3.168168      0.962794      0.962794      1.925589
     -3.158158      1.083934      1.083934      2.167867
     -3.148148      1.764951      1.764951      3.529902
     -3.138138      3.119485      3.119485      6.238971
     -3.128128      5.320814      5.320814     10.641628
     -3.118118      8.520433      8.520433     17.040866
     -3.108108     12.749802     12.749802     25.499605
     -3.098098     17.835324     17.835324     35.670648
     -3.088088     23.368108     23.368108     46.736215
     -3.078078     28.761412     28.761412     57.522823
     -3.068068     33.393356     33.393356     66.786712
     -3.058058     36.783733     36.783733     73.567465
     -3.048048     38.722111     38.722111     77.444221
     -3.038038     39.279271     39.279271     78.558542
     -3.028028     38.697535     38.697535     77.395070
     -3.018018     37.231778     37.231778     74.463555
     -3.008008     35.047456     35.047456     70.094911
     -2.997998     32.243984     32.243984     64.487967
     -2.987988     28.983307     28.983307     57.966615
     -2.977978     25.626821     25.626821     51.253642
     -2.967968     22.773033     22.773033     45.546066
     -2.957958     21.147875     21.147875     42.295749
     -2.947948     21.384935     21.384935     42.769871
     -2.937938     23.790316     23.790316     47.580632
     -2.927928     28.191180     28.191180     56.382359
     -2.917918     33.928800     33.928800     67.857601
     -2.907908     40.001993     40.001993     80.003985
     -2.897898     45.316715     45.316715     90.633429
     -2.887888     48.964567     48.964567     97.929134
     -2.877878     50.443886     50.443886    100.887772
     -2.867868     49.755379     49.755379     99.510758
     -2.857858     47.345618     47.345618     94.691236
     -2.847848     43.923034     43.923034     87.846067
     -2.837838     40.214328     40.214328     80.428655
     -2.827828     36.748629     36.748629     73.497258
     -2.817818     33.744243     33.744243     67.488486
     -2.807808     31.131186     31.131186     62.262372
     -2.797798     28.686442     28.686442     57.372884
     -2.787788     26.211109     26.211109     52.422218
     -2.777778     23.662515     23.662515     47.325029
     -2.767768     21.180428     21.180428     42.360857
     -2.757758     19.004097     19.004097     38.008193
     -2.747748     17.336454     17.336454     34.672908
     -2.737738     16.240006     16.240006     32.480013
     -2.727728     15.627576     15.627576     31.255151
     -2.717718     15.351038     15.351038     30.702076
     -2.707708     15.327942     15.327942     30.655883
     -2.697698     15.619437     15.619437     31.238875
     -2.687688     16.402016     16.402016     32.804031
     -2.677678     17.843832     17.843832     35.687664
     -2.667668     19.961054     19.961054     39.922109
     -2.657658     22.548051     22.548051     45.096102
     -2.647648     25.232788     25.232788     50.465576
     -2.637638     27.630501     27.630501     55.261003
     -2.627628     29.505296     29.505296     59.010592
     -2.617618     30.844452     30.844452     61.688903
     -2.607608     31.808588     31.808588     63.617175
     -2.597598     32.601502     32.601502     65.203005
     -2.587588     33.348000     33.348000     66.695999
     -2.577578     34.046065     34.046065     68.092129
     -2.567568     34.594674     34.594674     69.189349
     -2.557558     34.847479     34.847479     69.694959
     -2.547548     34.646061     34.646061     69.292122
     -2.537538     33.832488     33.832488     67.664975
     -2.527528     32.278418     32.278418     64.556836
     -2.517518     29.956944     29.956944     59.913888
     -2.507508     27.032826     27.032826     54.065653
     -2.497497     23.905284     23.905284     47.810569
     -2.487487     21.146763     21.146763     42.293527
     -2.477477     19.339182     19.339182     38.678364
     -2.467467     18.874713     18.874713     37.749426
     -2.457457     19.816436     19.816436     39.632871
     -2.447447     21.888658     21.888658     43.777317
     -2.437437     24.604022     24.604022     49.208044
     -2.427427     27.468482     27.468482     54.936964
     -2.417417     30.167584     30.167584     60.335168
     -2.407407     32.645499     32.645499     65.290999
     -2.397397     35.039260     35.039260     70.078519
     -2.387387     37.501808     37.501808     75.003616
     -2.377377     40.005010     40.005010     80.010021
     -2.367367     42.228554     42.228554     84.457107
     -2.357357     43.603478     43.603478     87.206957
     -2.347347     43.505803     43.505803     87.011605
     -2.337337     41.520730     41.520730     83.041461
     -2.327327     37.658877     37.658877     75.317754
     -2.317317     32.424638     32.424638     64.849275
     -2.307307     26.705030     26.705030     53.410060
     -2.297297     21.528401     21.528401     43.056801
     -2.287287     17.792584     17.792584     35.585168
     -2.277277     16.059340     16.059340     32.118680
     -2.267267     16.468138     16.468138     32.936275
     -2.257257     18.769609     18.769609     37.539219
     -2.247247     22.443067     22.443067     44.886133
     -2.237237     26.848795     26.848795     53.697590
     -2.227227     31.366982     31.366982     62.733963
     -2.217217     35.485907     35.485907     70.971813
     -2.207207     38.823915     38.823915     77.647829
     -2.197197     41.101178     41.101178     82.202355
     -2.187187     42.104519     42.104519     84.209038
     -2.177177     41.690920     41.690920     83.381840
     -2.167167     39.843469     39.843469     79.686938
     -2.157157     36.744210     36.744210     73.488419
     -2.147147     32.797797     32.797797     65.595595
     -2.137137     28.556999     28.556999     57.113998
     -2.127127     24.561106     24.561106     49.122212
     -2.117117     21.161118     21.161118     42.322236
     -2.107107     18.424356     18.424356     36.848712
     -2.097097     16.169178     16.169178     32.338356
     -2.087087     14.105409     14.105409     28.210818
     -2.077077     11.998853     11.998853     23.997705
     -2.067067      9.774797      9.774797     19.549594
     -2.057057      7.521824      7.521824     15.043648
     -2.047047      5.417282      5.417282     10.834564
     -2.037037      3.630724      3.630724      7.261448
     -2.027027      2.256965      2.256965      4.513929
     -2.017017      1.299775      1.299775      2.599549
     -2.007007      0.696092      0.696092      1.392184
     -1.996997      0.356348      0.356348      0.712696
     -1.986987      0.200235      0.200235      0.400470
     -1.976977      0.179270      0.179270      0.358540
     -1.966967      0.287429      0.287429      0.574857
     -1.956957      0.564013      0.564013      1.128026
     -1.946947      1.089936      1.089936      2.179872
     -1.936937      1.974145      1.974145      3.948290
     -1.926927      3.325743      3.325743      6.651487
     -1.916917      5.212301      5.212301     10.424602
     -1.906907      7.614507      7.614507     15.229014
     -1.896897     10.395727     10.395727     20.791454
     -1.886887     13.304867     13.304867     26.609733
     -1.876877     16.019443     16.019443     32.038887
     -1.866867     18.218451     18.218451     36.436901
     -1.856857     19.661832     19.661832     39.323663
     -1.846847     20.251553     20.251553     40.503106
     -1.836837     20.056031     20.056031     40.112061
     -1.826827     19.288645     19.288645     38.577291
     -1.816817     18.240693     18.240693     36.481385
     -1.806807     17.183135     17.183135     34.366270
     -1.796797     16.269747     16.269747     32.539495
     -1.786787     15.484960     15.484960     30.969920
     -1.776777     14.667532     14.667532     29.335063
     -1.766767     13.604657     13.604657     27.209315
     -1.756757     12.150836     12.150836     24.301673
     -1.746747     10.310787     10.310787     20.621573
     -1.736737      8.248493      8.248493     16.496986
     -1.726727      6.229441      6.229441     12.458882
     -1.716717      4.538568      4.538568      9.077136
     -1.706707      3.420012      3.420012      6.840024
     -1.696697      3.058314      3.058314      6.116628
     -1.686687      3.585979      3.585979      7.171958
     -1.676677      5.083085      5.083085     10.166169
     -1.666667      7.542760      7.542760     15.085520
     -1.656657     10.806773     10.806773     21.613546
     -1.646647     14.509949     14.509949     29.019897
     -1.636637     18.087495     18.087495     36.174991
     -1.626627     20.879709     20.879709     41.759417
