# EIG2DOS: Utility for SIESTA to obtain the electronic density of states
#  E. Artacho, Apr 1999, A. Garcia, Apr 2012
#  Nick R. Papior, Feb 2017
# ------------------------------------------
# Eigenvalues calculated from a non-polarized calculation
# Eigenvalues read from siesta.EIG
# Kpoint weights read from siesta.KP
# Using smearing parameter:   0.0500
# Using 1000 points in the energy range
# Selected bands: 1 to: 2981
# Emin, Emax in file for selected band(s):    -27.0835200    218.3220910
# Nbands, Nspin, Nk   =   2981     1     1
# E_F                 =    -4.2892 eV --> (shifted to ZERO)
# Broadening          =     0.0500 eV
#
#        E            N(up)  (=)   N(down)         Ntot
     -5.000000     44.526356     44.526356     89.052711
     -4.989990     47.154408     47.154408     94.308816
     -4.979980     48.590520     48.590520     97.181040
     -4.969970     48.781430     48.781430     97.562859
     -4.959960     47.764681     47.764681     95.529362
     -4.949950     45.664834     45.664834     91.329668
     -4.939940     42.703521     42.703521     85.407042
     -4.929930     39.215242     39.215242     78.430483
     -4.919920     35.657314     35.657314     71.314628
     -4.909910     32.601666     32.601666     65.203333
     -4.899900     30.691762     30.691762     61.383523
     -4.889890     30.543166     30.543166     61.086332
     -4.879880     32.577239     32.577239     65.154479
     -4.869870     36.816905     36.816905     73.633810
     -4.859860     42.728071     42.728071     85.456141
     -4.849850     49.217451     49.217451     98.434902
     -4.839840     54.855803     54.855803    109.711605
     -4.829830     58.286752     58.286752    116.573504
     -4.819820     58.665029     58.665029    117.330058
     -4.809810     55.925834     55.925834    111.851668
     -4.799800     50.760124     50.760124    101.520248
     -4.789790     44.319973     44.319973     88.639945
     -4.779780     37.808923     37.808923     75.617845
     -4.769770     32.144128     32.144128     64.288256
     -4.759760     27.803272     27.803272     55.606545
     -4.749750     24.854109     24.854109     49.708218
     -4.739740     23.085755     23.085755     46.171509
     -4.729730     22.151891     22.151891     44.303783
     -4.719720     21.675044     21.675044     43.350087
     -4.709710     21.305559     21.305559     42.611117
     -4.699700     20.753117     20.753117     41.506235
     -4.689690     19.811846     19.811846     39.623693
     -4.679680     18.391879     18.391879     36.783758
     -4.669670     16.557137     16.557137     33.114274
     -4.659660     14.555616     14.555616     29.111232
     -4.649650     12.820685     12.820685     25.641370
     -4.639640     11.924701     11.924701     23.849402
     -4.629630     12.477936     12.477936     24.955871
     -4.619620     14.980787     14.980787     29.961574
     -4.609610     19.653381     19.653381     39.306762
     -4.599600     26.285933     26.285933     52.571865
     -4.589590     34.171432     34.171432     68.342865
     -4.579580     42.182387     42.182387     84.364774
     -4.569570     49.015992     49.015992     98.031984
     -4.559560     53.558640     53.558640    107.117280
     -4.549550     55.245116     55.245116    110.490232
     -4.539540     54.260441     54.260441    108.520881
     -4.529530     51.482831     51.482831    102.965662
     -4.519520     48.177131     48.177131     96.354262
     -4.509510     45.561520     45.561520     91.123039
     -4.499499     44.424246     44.424246     88.848492
     -4.489489     44.934056     44.934056     89.868111
     -4.479479     46.689743     46.689743     93.379486
     -4.469469     48.946575     48.946575     97.893150
     -4.459459     50.895626     50.895626    101.791251
     -4.449449     51.881068     51.881068    103.762135
     -4.439439     51.503382     51.503382    103.006765
     -4.429429     49.628498     49.628498     99.256997
     -4.419419     46.360122     46.360122     92.720244
     -4.409409     42.018461     42.018461     84.036923
     -4.399399     37.123031     37.123031     74.246063
     -4.389389     32.341236     32.341236     64.682472
     -4.379379     28.369972     28.369972     56.739945
     -4.369369     25.763065     25.763065     51.526130
     -4.359359     24.768624     24.768624     49.537249
     -4.349349     25.256562     25.256562     50.513124
     -4.339339     26.781349     26.781349     53.562698
     -4.329329     28.759197     28.759197     57.518395
     -4.319319     30.683074     30.683074     61.366149
     -4.309309     32.285427     32.285427     64.570853
     -4.299299     33.589811     33.589811     67.179622
     -4.289289     34.844692     34.844692     69.689384
     -4.279279     36.375348     36.375348     72.750696
     -4.269269     38.408729     38.408729     76.817457
     -4.259259     40.927148     40.927148     81.854296
     -4.249249     43.601277     43.601277     87.202554
     -4.239239     45.840558     45.840558     91.681115
     -4.229229     46.967551     46.967551     93.935102
     -4.219219     46.468265     46.468265     92.936530
     -4.209209     44.216793     44.216793     88.433586
     -4.199199     40.561688     40.561688     81.123376
     -4.189189     36.217879     36.217879     72.435758
     -4.179179     32.008104     32.008104     64.016208
     -4.169169     28.579570     28.579570     57.159140
     -4.159159     26.230431     26.230431     52.460862
     -4.149149     24.913008     24.913008     49.826015
     -4.139139     24.383834     24.383834     48.767667
     -4.129129     24.403102     24.403102     48.806205
     -4.119119     24.876711     24.876711     49.753423
     -4.109109     25.874139     25.874139     51.748279
     -4.099099     27.518749     27.518749     55.037497
     -4.089089     29.809554     29.809554     59.619108
     -4.079079     32.474199     32.474199     64.948398
     -4.069069     34.950610     34.950610     69.901220
     -4.059059     36.538232     36.538232     73.076464
     -4.049049     36.667191     36.667191     73.334381
     -4.039039     35.156434     35.156434     70.312867
     -4.029029     32.324167     32.324167     64.648333
     -4.019019     28.889573     28.889573     57.779147
     -4.009009     25.719337     25.719337     51.438674
     -3.998999     23.551720     23.551720     47.103440
     -3.988989     22.825482     22.825482     45.650964
     -3.978979     23.661776     23.661776     47.323552
     -3.968969     25.954496     25.954496     51.908991
     -3.958959     29.480680     29.480680     58.961361
     -3.948949     33.967054     33.967054     67.934108
     -3.938939     39.109366     39.109366     78.218733
     -3.928929     44.584263     44.584263     89.168527
     -3.918919     50.087347     50.087347    100.174694
     -3.908909     55.388422     55.388422    110.776844
     -3.898899     60.357743     60.357743    120.715485
     -3.888889     64.920697     64.920697    129.841395
     -3.878879     68.944476     68.944476    137.888952
     -3.868869     72.117278     72.117278    144.234557
     -3.858859     73.907507     73.907507    147.815014
     -3.848849     73.663406     73.663406    147.326812
     -3.838839     70.841712     70.841712    141.683424
     -3.828829     65.275251     65.275251    130.550502
     -3.818819     57.351438     57.351438    114.702876
     -3.808809     48.003517     48.003517     96.007033
     -3.798799     38.501180     38.501180     77.002361
     -3.788789     30.119236     30.119236     60.238472
     -3.778779     23.811429     23.811429     47.622859
     -3.768769     20.001032     20.001032     40.002064
     -3.758759     18.539934     18.539934     37.079868
     -3.748749     18.822922     18.822922     37.645845
     -3.738739     20.002827     20.002827     40.005655
     -3.728729     21.240526     21.240526     42.481052
     -3.718719     21.929936     21.929936     43.859873
     -3.708709     21.849969     21.849969     43.699937
     -3.698699     21.209057     21.209057     42.418114
     -3.688689     20.566590     20.566590     41.133179
     -3.678679     20.642850     20.642850     41.285700
     -3.668669     22.063233     22.063233     44.126465
     -3.658659     25.113586     25.113586     50.227173
     -3.648649     29.594932     29.594932     59.189864
     -3.638639     34.841913     34.841913     69.683827
     -3.628629     39.909153     39.909153     79.818307
     -3.618619     43.856349     43.856349     87.712698
     -3.608609     46.016909     46.016909     92.033819
     -3.598599     46.147230     46.147230     92.294459
     -3.588589     44.418991     44.418991     88.837981
     -3.578579     41.292523     41.292523     82.585045
     -3.568569     37.347773     37.347773     74.695546
     -3.558559     33.136471     33.136471     66.272943
     -3.548549     29.081120     29.081120     58.162240
     -3.538539     25.420804     25.420804     50.841608
     -3.528529     22.202978     22.202978     44.405957
     -3.518519     19.326198     19.326198     38.652396
     -3.508509     16.629058     16.629058     33.258116
     -3.498498     13.996362     13.996362     27.992724
     -3.488488     11.437246     11.437246     22.874491
     -3.478478      9.100472      9.100472     18.200944
     -3.468468      7.224217      7.224217     14.448433
     -3.458458      6.047843      6.047843     12.095686
     -3.448448      5.722925      5.722925     11.445850
     -3.438438      6.251499      6.251499     12.502997
     -3.428428      7.466048      7.466048     14.932097
     -3.418418      9.057981      9.057981     18.115962
     -3.408408     10.655312     10.655312     21.310624
     -3.398398     11.936375     11.936375     23.872750
     -3.388388     12.745164     12.745164     25.490329
     -3.378378     13.160548     13.160548     26.321097
     -3.368368     13.482879     13.482879     26.965759
     -3.358358     14.137650     14.137650     28.275299
     -3.348348     15.535280     15.535280     31.070560
     -3.338338     17.941592     17.941592     35.883184
     -3.328328     21.395656     21.395656     42.791313
     -3.318318     25.678876     25.678876     51.357752
     -3.308308     30.321817     30.321817     60.643633
     -3.298298     34.646818     34.646818     69.293635
     -3.288288     37.865668     37.865668     75.731335
     -3.278278     39.247679     39.247679     78.495358
     -3.268268     38.330648     38.330648     76.661297
     -3.258258     35.094311     35.094311     70.188622
     -3.248248     30.003453     30.003453     60.006906
     -3.238238     23.880516     23.880516     47.761032
     -3.228228     17.656086     17.656086     35.312171
     -3.218218     12.108856     12.108856     24.217712
     -3.208208      7.702477      7.702477     15.404953
     -3.198198      4.564844      4.564844      9.129687
     -3.188188      2.583114      2.583114      5.166228
     -3.178178      1.548419      1.548419      3.096837
     -3.168168      1.288069      1.288069      2.576137
     -3.158158      1.750151      1.750151      3.500303
     -3.148148      3.029760      3.029760      6.059519
     -3.138138      5.336283      5.336283     10.672566
     -3.128128      8.903949      8.903949     17.807897
     -3.118118     13.857381     13.857381     27.714761
     -3.108108     20.066653     20.066653     40.133306
     -3.098098     27.051833     27.051833     54.103667
     -3.088088     34.002300     34.002300     68.004600
     -3.078078     39.942412     39.942412     79.884824
     -3.068068     44.007020     44.007020     88.014039
     -3.058058     45.721584     45.721584     91.443168
     -3.048048     45.157673     45.157673     90.315347
     -3.038038     42.880855     42.880855     85.761710
     -3.028028     39.707265     39.707265     79.414530
     -3.018018     36.383298     36.383298     72.766597
     -3.008008     33.341805     33.341805     66.683610
     -2.997998     30.644117     30.644117     61.288233
     -2.987988     28.116395     28.116395     56.232790
     -2.977978     25.589938     25.589938     51.179875
     -2.967968     23.111571     23.111571     46.223143
     -2.957958     21.018519     21.018519     42.037037
     -2.947948     19.847471     19.847471     39.694941
     -2.937938     20.125762     20.125762     40.251523
     -2.927928     22.138382     22.138382     44.276764
     -2.917918     25.766986     25.766986     51.533972
     -2.907908     30.464915     30.464915     60.929830
     -2.897898     35.381728     35.381728     70.763457
     -2.887888     39.597350     39.597350     79.194700
     -2.877878     42.384579     42.384579     84.769158
     -2.867868     43.404581     43.404581     86.809161
     -2.857858     42.762735     42.762735     85.525470
     -2.847848     40.907419     40.907419     81.814839
     -2.837838     38.419859     38.419859     76.839718
     -2.827828     35.788705     35.788705     71.577409
     -2.817818     33.265441     33.265441     66.530882
     -2.807808     30.854163     30.854163     61.708326
     -2.797798     28.422335     28.422335     56.844669
     -2.787788     25.861381     25.861381     51.722762
     -2.777778     23.206375     23.206375     46.412750
     -2.767768     20.652495     20.652495     41.304990
     -2.757758     18.466885     18.466885     36.933769
     -2.747748     16.854752     16.854752     33.709503
     -2.737738     15.863910     15.863910     31.727820
     -2.727728     15.387108     15.387108     30.774215
     -2.717718     15.259830     15.259830     30.519660
     -2.707708     15.389606     15.389606     30.779212
     -2.697698     15.830163     15.830163     31.660326
     -2.687688     16.746630     16.746630     33.493260
     -2.677678     18.287977     18.287977     36.575953
     -2.667668     20.446164     20.446164     40.892327
     -2.657658     22.995763     22.995763     45.991526
     -2.647648     25.560733     25.560733     51.121466
     -2.637638     27.774545     27.774545     55.549091
     -2.627628     29.438669     29.438669     58.877338
     -2.617618     30.585095     30.585095     61.170191
     -2.607608     31.412084     31.412084     62.824167
     -2.597598     32.143853     32.143853     64.287706
     -2.587588     32.905853     32.905853     65.811705
     -2.577578     33.680482     33.680482     67.360965
     -2.567568     34.340938     34.340938     68.681877
     -2.557558     34.711057     34.711057     69.422114
     -2.547548     34.604645     34.604645     69.209290
     -2.537538     33.844156     33.844156     67.688312
     -2.527528     32.294631     32.294631     64.589262
     -2.517518     29.936779     29.936779     59.873558
     -2.507508     26.953713     26.953713     53.907426
     -2.497497     23.767044     23.767044     47.534088
     -2.487487     20.969130     20.969130     41.938260
     -2.477477     19.155712     19.155712     38.311424
     -2.467467     18.726374     18.726374     37.452749
     -2.457457     19.746447     19.746447     39.492894
     -2.447447     21.938133     21.938133     43.876266
     -2.437437     24.807163     24.807163     49.614326
     -2.427427     27.846554     27.846554     55.693109
     -2.417417     30.721862     30.721862     61.443724
     -2.407407     33.350298     33.350298     66.700595
     -2.397397     35.837146     35.837146     71.674293
     -2.387387     38.304298     38.304298     76.608596
     -2.377377     40.702397     40.702397     81.404795
     -2.367367     42.710471     42.710471     85.420942
     -2.357357     43.786792     43.786792     87.573583
     -2.347347     43.360824     43.360824     86.721648
     -2.337337     41.084554     41.084554     82.169108
     -2.327327     37.028558     37.028558     74.057116
     -2.317317     31.731609     31.731609     63.463219
     -2.307307     26.080524     26.080524     52.161049
     -2.297297     21.072742     21.072742     42.145485
     -2.287287     17.557905     17.557905     35.115810
     -2.277277     16.048495     16.048495     32.096990
     -2.267267     16.646521     16.646521     33.293043
     -2.257257     19.083366     19.083366     38.166731
     -2.247247     22.836526     22.836526     45.673052
     -2.237237     27.275160     27.275160     54.550321
     -2.227227     31.789339     31.789339     63.578677
     -2.217217     35.870479     35.870479     71.740957
     -2.207207     39.132182     39.132182     78.264364
     -2.197197     41.288671     41.288671     82.577343
     -2.187187     42.130038     42.130038     84.260076
     -2.177177     41.532604     41.532604     83.065209
     -2.167167     39.512585     39.512585     79.025171
     -2.157157     36.287656     36.287656     72.575313
     -2.147147     32.286226     32.286226     64.572452
     -2.137137     28.063254     28.063254     56.126507
     -2.127127     24.138654     24.138654     48.277308
     -2.117117     20.831744     20.831744     41.663488
     -2.107107     18.179289     18.179289     36.358577
     -2.097097     15.981194     15.981194     31.962388
     -2.087087     13.944835     13.944835     27.889669
     -2.077077     11.845898     11.845898     23.691797
     -2.067067      9.623939      9.623939     19.247878
     -2.057057      7.378649      7.378649     14.757298
     -2.047047      5.291568      5.291568     10.583135
     -2.037037      3.530114      3.530114      7.060229
     -2.027027      2.183823      2.183823      4.367645
     -2.017017      1.251356      1.251356      2.502713
     -2.007007      0.666584      0.666584      1.333168
     -1.996997      0.339040      0.339040      0.678080
     -1.986987      0.188754      0.188754      0.377508
     -1.976977      0.167670      0.167670      0.335339
     -1.966967      0.269540      0.269540      0.539080
     -1.956957      0.532794      0.532794      1.065588
     -1.946947      1.037669      1.037669      2.075338
     -1.936937      1.894183      1.894183      3.788367
     -1.926927      3.215924      3.215924      6.431849
     -1.916917      5.079046      5.079046     10.158092
     -1.906907      7.475386      7.475386     14.950772
     -1.896897     10.277829     10.277829     20.555657
     -1.886887     13.237548     13.237548     26.475096
     -1.876877     16.022893     16.022893     32.045786
     -1.866867     18.292580     18.292580     36.585161
     -1.856857     19.781190     19.781190     39.562380
     -1.846847     20.369989     20.369989     40.739977
     -1.836837     20.120545     20.120545     40.241090
     -1.826827     19.257677     19.257677     38.515354
     -1.816817     18.100195     18.100195     36.200390
     -1.806807     16.955006     16.955006     33.910012
     -1.796797     16.010596     16.010596     32.021193
     -1.786787     15.277554     15.277554     30.555107
     -1.776777     14.611254     14.611254     29.222508
     -1.766767     13.813248     13.813248     27.626495
     -1.756757     12.763194     12.763194     25.526389
     -1.746747     11.512192     11.512192     23.024384
     -1.736737     10.287025     10.287025     20.574050
     -1.726727      9.402390      9.402390     18.804780
     -1.716717      9.125605      9.125605     18.251211
     -1.706707      9.559926      9.559926     19.119852
     -1.696697     10.600423     10.600423     21.200846
     -1.686687     11.979696     11.979696     23.959391
     -1.676677     13.377334     13.377334     26.754668
     -1.666667     14.536506     14.536506     29.073012
     -1.656657     15.329183     15.329183     30.658365
     -1.646647     15.742582     15.742582     31.485163
     -1.636637     15.808204     15.808204     31.616407
     -1.626627     15.530965     15.530965     31.061930
