# EIG2DOS: Utility for SIESTA to obtain the electronic density of states
#  E. Artacho, Apr 1999, A. Garcia, Apr 2012
#  Nick R. Papior, Feb 2017
# ------------------------------------------
# Eigenvalues calculated from a non-polarized calculation
# Eigenvalues read from siesta.EIG
# Kpoint weights read from siesta.KP
# Using smearing parameter:   0.0500
# Using 1000 points in the energy range
# Selected bands: 1 to: 2981
# Emin, Emax in file for selected band(s):    -27.1013160    218.3269560
# Nbands, Nspin, Nk   =   2981     1     1
# E_F                 =    -4.2870 eV --> (shifted to ZERO)
# Broadening          =     0.0500 eV
#
#        E            N(up)  (=)   N(down)         Ntot
     -5.000000     43.941362     43.941362     87.882723
     -4.989990     45.982234     45.982234     91.964468
     -4.979980     47.079086     47.079086     94.158171
     -4.969970     47.206253     47.206253     94.412506
     -4.959960     46.349813     46.349813     92.699627
     -4.949950     44.538942     44.538942     89.077884
     -4.939940     41.898825     41.898825     83.797651
     -4.929930     38.696333     38.696333     77.392666
     -4.919920     35.358643     35.358643     70.717286
     -4.909910     32.456884     32.456884     64.913768
     -4.899900     30.648194     30.648194     61.296388
     -4.889890     30.563470     30.563470     61.126941
     -4.879880     32.634403     32.634403     65.268807
     -4.869870     36.888713     36.888713     73.777426
     -4.859860     42.794738     42.794738     85.589476
     -4.849850     49.263025     49.263025     98.526051
     -4.839840     54.871391     54.871391    109.742783
     -4.829830     58.272627     58.272627    116.545255
     -4.819820     58.629530     58.629530    117.259060
     -4.809810     55.881124     55.881124    111.762247
     -4.799800     50.716860     50.716860    101.433720
     -4.789790     44.283545     44.283545     88.567090
     -4.779780     37.778820     37.778820     75.557641
     -4.769770     32.116094     32.116094     64.232188
     -4.759760     27.772508     27.772508     55.545016
     -4.749750     24.817660     24.817660     49.635320
     -4.739740     23.043224     23.043224     46.086449
     -4.729730     22.104833     22.104833     44.209666
     -4.719720     21.626005     21.626005     43.252010
     -4.709710     21.257544     21.257544     42.515087
     -4.699700     20.709630     20.709630     41.419260
     -4.689690     19.777295     19.777295     39.554590
     -4.679680     18.372117     18.372117     36.744233
     -4.669670     16.560027     16.560027     33.120053
     -4.659660     14.591304     14.591304     29.182608
     -4.649650     12.900710     12.900710     25.801419
     -4.639640     12.058700     12.058700     24.117401
     -4.629630     12.667357     12.667357     25.334714
     -4.619620     15.211036     15.211036     30.422072
     -4.609610     19.888527     19.888527     39.777054
     -4.599600     26.471340     26.471340     52.942681
     -4.589590     34.247432     34.247432     68.494864
     -4.579580     42.106217     42.106217     84.212434
     -4.569570     48.782938     48.782938     97.565876
     -4.559560     53.211388     53.211388    106.422776
     -4.549550     54.865698     54.865698    109.731395
     -4.539540     53.949340     53.949340    107.898679
     -4.529530     51.337987     51.337987    102.675974
     -4.519520     48.285397     48.285397     96.570794
     -4.509510     46.005552     46.005552     92.011105
     -4.499499     45.294350     45.294350     90.588700
     -4.489489     46.325937     46.325937     92.651873
     -4.479479     48.672518     48.672518     97.345035
     -4.469469     51.502096     51.502096    103.004192
     -4.459459     53.853657     53.853657    107.707315
     -4.449449     54.891427     54.891427    109.782853
     -4.439439     54.081118     54.081118    108.162236
     -4.429429     51.276570     51.276570    102.553140
     -4.419419     46.729215     46.729215     93.458431
     -4.409409     41.033372     41.033372     82.066744
     -4.399399     35.013219     35.013219     70.026437
     -4.389389     29.559248     29.559248     59.118496
     -4.379379     25.437827     25.437827     50.875654
     -4.369369     23.118012     23.118012     46.236024
     -4.359359     22.669354     22.669354     45.338708
     -4.349349     23.771088     23.771088     47.542176
     -4.339339     25.837029     25.837029     51.674059
     -4.329329     28.215889     28.215889     56.431779
     -4.319319     30.395650     30.395650     60.791299
     -4.309309     32.140007     32.140007     64.280015
     -4.299299     33.514871     33.514871     67.029741
     -4.289289     34.806093     34.806093     69.612186
     -4.279279     36.364275     36.364275     72.728549
     -4.269269     38.428114     38.428114     76.856228
     -4.259259     40.979639     40.979639     81.959278
     -4.249249     43.681107     43.681107     87.362214
     -4.239239     45.931423     45.931423     91.862846
     -4.229229     47.047037     47.047037     94.094075
     -4.219219     46.516452     46.516452     93.032905
     -4.209209     44.224266     44.224266     88.448532
     -4.199199     40.532377     40.532377     81.064754
     -4.189189     36.165278     36.165278     72.330555
     -4.179179     31.947473     31.947473     63.894947
     -4.169169     28.520897     28.520897     57.041793
     -4.159159     26.175826     26.175826     52.351652
     -4.149149     24.858968     24.858968     49.717937
     -4.139139     24.325851     24.325851     48.651702
     -4.129129     24.339305     24.339305     48.678609
     -4.119119     24.808670     24.808670     49.617340
     -4.109109     25.805190     25.805190     51.610381
     -4.099099     27.451643     27.451643     54.903285
     -4.089089     29.745274     29.745274     59.490548
     -4.079079     32.412669     32.412669     64.825339
     -4.069069     34.892640     34.892640     69.785279
     -4.059059     36.487194     36.487194     72.974389
     -4.049049     36.629122     36.629122     73.258243
     -4.039039     35.138222     35.138222     70.276443
     -4.029029     32.330718     32.330718     64.661436
     -4.019019     28.921479     28.921479     57.842958
     -4.009009     25.772295     25.772295     51.544589
     -3.998999     23.618009     23.618009     47.236017
     -3.988989     22.896736     22.896736     45.793471
     -3.978979     23.731710     23.731710     47.463421
     -3.968969     26.020367     26.020367     52.040734
     -3.958959     29.542961     29.542961     59.085922
     -3.948949     34.027745     34.027745     68.055490
     -3.938939     39.169997     39.169997     78.339994
     -3.928929     44.644628     44.644628     89.289257
     -3.918919     50.145389     50.145389    100.290778
     -3.908909     55.440932     55.440932    110.881864
     -3.898899     60.401210     60.401210    120.802421
     -3.888889     64.951901     64.951901    129.903803
     -3.878879     68.960826     68.960826    137.921652
     -3.868869     72.117073     72.117073    144.234146
     -3.858859     73.890057     73.890057    147.780114
     -3.848849     73.628842     73.628842    147.257685
     -3.838839     70.790554     70.790554    141.581107
     -3.828829     65.208230     65.208230    130.416460
     -3.818819     57.270044     57.270044    114.540087
     -3.808809     47.911081     47.911081     95.822162
     -3.798799     38.403600     38.403600     76.807201
     -3.788789     30.024443     30.024443     60.048886
     -3.778779     23.727532     23.727532     47.455064
     -3.768769     19.934027     19.934027     39.868055
     -3.758759     18.492181     18.492181     36.984361
     -3.748749     18.793042     18.793042     37.586084
     -3.738739     19.986868     19.986868     39.973737
     -3.728729     21.233681     21.233681     42.467363
     -3.718719     21.928107     21.928107     43.856214
     -3.708709     21.850745     21.850745     43.701490
     -3.698699     21.211997     21.211997     42.423994
     -3.688689     20.572868     20.572868     41.145735
     -3.678679     20.654459     20.654459     41.308917
     -3.668669     22.082025     22.082025     44.164050
     -3.658659     25.140519     25.140519     50.281038
     -3.648649     29.629784     29.629784     59.259569
     -3.638639     34.883504     34.883504     69.767008
     -3.628629     39.955741     39.955741     79.911482
     -3.618619     43.905770     43.905770     87.811540
     -3.608609     46.066237     46.066237     92.132475
     -3.598599     46.192258     46.192258     92.384515
     -3.588589     44.454219     44.454219     88.908438
     -3.578579     41.312169     41.312169     82.624338
     -3.568569     37.347627     37.347627     74.695253
     -3.558559     33.115657     33.115657     66.231313
     -3.548549     29.042698     29.042698     58.085396
     -3.538539     25.370786     25.370786     50.741571
     -3.528529     22.148301     22.148301     44.296602
     -3.518519     19.272788     19.272788     38.545576
     -3.508509     16.580905     16.580905     33.161811
     -3.498498     13.955765     13.955765     27.911530
     -3.488488     11.405693     11.405693     22.811387
     -3.478478      9.079434      9.079434     18.158868
     -3.468468      7.215341      7.215341     14.430682
     -3.458458      6.052478      6.052478     12.104955
     -3.448448      5.741177      5.741177     11.482353
     -3.438438      6.281241      6.281241     12.562483
     -3.428428      7.502377      7.502377     15.004754
     -3.418418      9.093590      9.093590     18.187180
     -3.408408     10.681981     10.681981     21.363962
     -3.398398     11.947216     11.947216     23.894432
     -3.388388     12.736757     12.736757     25.473514
     -3.378378     13.133984     13.133984     26.267967
     -3.368368     13.443208     13.443208     26.886416
     -3.358358     14.092026     14.092026     28.184053
     -3.348348     15.490710     15.490710     30.981421
     -3.338338     17.903246     17.903246     35.806492
     -3.328328     21.366240     21.366240     42.732480
     -3.318318     25.658943     25.658943     51.317886
     -3.308308     30.310524     30.310524     60.621049
     -3.298298     34.642638     34.642638     69.285276
     -3.288288     37.866822     37.866822     75.733644
     -3.278278     39.252335     39.252335     78.504670
     -3.268268     38.337047     38.337047     76.674094
     -3.258258     35.100956     35.100956     70.201912
     -3.248248     30.009415     30.009415     60.018829
     -3.238238     23.885884     23.885884     47.771768
     -3.228228     17.662795     17.662795     35.325589
     -3.218218     12.122461     12.122461     24.244922
     -3.208208      7.735880      7.735880     15.471759
     -3.198198      4.645071      4.645071      9.290142
     -3.188188      2.761425      2.761425      5.522851
     -3.178178      1.911543      1.911543      3.823085
     -3.168168      1.964111      1.964111      3.928223
     -3.158158      2.898398      2.898398      5.796796
     -3.148148      4.803336      4.803336      9.606671
     -3.138138      7.815358      7.815358     15.630715
     -3.128128     12.015956     12.015956     24.031912
     -3.118118     17.321920     17.321920     34.643841
     -3.108108     23.410399     23.410399     46.820797
     -3.098098     29.718563     29.718563     59.437126
     -3.088088     35.536634     35.536634     71.073269
     -3.078078     40.176307     40.176307     80.352614
     -3.068068     43.158648     43.158648     86.317295
     -3.058058     44.345584     44.345584     88.691169
     -3.048048     43.952109     43.952109     87.904218
     -3.038038     42.424180     42.424180     84.848360
     -3.028028     40.233010     40.233010     80.466019
     -3.018018     37.686128     37.686128     75.372257
     -3.008008     34.854727     34.854727     69.709455
     -2.997998     31.656032     31.656032     63.312065
     -2.987988     28.040354     28.040354     56.080708
     -2.977978     24.171323     24.171323     48.342647
     -2.967968     20.494633     20.494633     40.989265
     -2.957958     17.657291     17.657291     35.314582
     -2.947948     16.317899     16.317899     32.635797
     -2.937938     16.931431     16.931431     33.862862
     -2.927928     19.587125     19.587125     39.174251
     -2.917918     23.946344     23.946344     47.892689
     -2.907908     29.294794     29.294794     58.589587
     -2.897898     34.698343     34.698343     69.396687
     -2.887888     39.227472     39.227472     78.454943
     -2.877878     42.189716     42.189716     84.379432
     -2.867868     43.294756     43.294756     86.589511
     -2.857858     42.690237     42.690237     85.380473
     -2.847848     40.852412     40.852412     81.704824
     -2.837838     38.376345     38.376345     76.752690
     -2.827828     35.754925     35.754925     71.509851
     -2.817818     33.239416     33.239416     66.478831
     -2.807808     30.833080     30.833080     61.666159
     -2.797798     28.403796     28.403796     56.807593
     -2.787788     25.844693     25.844693     51.689386
     -2.777778     23.192831     23.192831     46.385661
     -2.767768     20.644547     20.644547     41.289094
     -2.757758     18.466841     18.466841     36.933682
     -2.747748     16.863947     16.863947     33.727894
     -2.737738     15.883050     15.883050     31.766099
     -2.727728     15.417731     15.417731     30.835462
     -2.717718     15.305934     15.305934     30.611867
     -2.707708     15.457941     15.457941     30.915881
     -2.697698     15.928040     15.928040     31.856080
     -2.687688     16.877380     16.877380     33.754759
     -2.677678     18.445921     18.445921     36.891842
     -2.667668     20.614035     20.614035     41.228070
     -2.657658     23.146945     23.146945     46.293890
     -2.647648     25.666431     25.666431     51.332861
     -2.637638     27.813149     27.813149     55.626299
     -2.627628     29.403018     29.403018     58.806036
     -2.617618     30.484274     30.484274     60.968549
     -2.607608     31.267324     31.267324     62.534648
     -2.597598     31.981096     31.981096     63.962193
     -2.587588     32.748641     32.748641     65.497282
     -2.577578     33.545647     33.545647     67.091294
     -2.567568     34.237369     34.237369     68.474738
     -2.557558     34.640380     34.640380     69.280760
     -2.547548     34.562639     34.562639     69.125278
     -2.537538     33.822544     33.822544     67.645088
     -2.527528     32.283423     32.283423     64.566846
     -2.517518     29.927089     29.927089     59.854179
     -2.507508     26.940341     26.940341     53.880681
     -2.497497     23.749826     23.749826     47.499651
     -2.487487     20.952441     20.952441     41.904883
     -2.477477     19.146285     19.146285     38.292570
     -2.467467     18.730277     18.730277     37.460555
     -2.457457     19.766368     19.766368     39.532735
     -2.447447     21.971965     21.971965     43.943930
     -2.437437     24.848431     24.848431     49.696862
     -2.427427     27.886499     27.886499     55.772998
     -2.417417     30.752243     30.752243     61.504486
     -2.407407     33.365544     33.365544     66.731088
     -2.397397     35.834855     35.834855     71.669711
     -2.387387     38.284180     38.284180     76.568360
     -2.377377     40.664901     40.664901     81.329802
     -2.367367     42.656517     42.656517     85.313033
     -2.357357     43.719001     43.719001     87.438002
     -2.347347     43.285139     43.285139     86.570277
     -2.337337     41.010474     41.010474     82.020948
     -2.327327     36.967134     36.967134     73.934268
     -2.317317     31.692072     31.692072     63.384145
     -2.307307     26.067622     26.067622     52.135244
     -2.297297     21.086408     21.086408     42.172817
     -2.287287     17.595199     17.595199     35.190397
     -2.277277     16.106114     16.106114     32.212229
     -2.267267     16.721887     16.721887     33.443774
     -2.257257     19.173436     19.173436     38.346871
     -2.247247     22.935304     22.935304     45.870609
     -2.237237     27.371988     27.371988     54.743977
     -2.227227     31.869767     31.869767     63.739535
     -2.217217     35.919958     35.919958     71.839916
     -2.207207     39.140982     39.140982     78.281963
     -2.197197     41.255590     41.255590     82.511179
     -2.187187     42.063047     42.063047     84.126094
     -2.177177     41.446220     41.446220     82.892441
     -2.167167     39.423300     39.423300     78.846600
     -2.157157     36.209413     36.209413     72.418826
     -2.147147     32.227499     32.227499     64.454998
     -2.137137     28.026315     28.026315     56.052629
     -2.127127     24.120700     24.120700     48.241400
     -2.117117     20.827053     20.827053     41.654105
     -2.107107     18.181503     18.181503     36.363007
     -2.097097     15.985069     15.985069     31.970137
     -2.087087     13.947117     13.947117     27.894234
     -2.077077     11.845379     11.845379     23.690758
     -2.067067      9.620924      9.620924     19.241848
     -2.057057      7.374208      7.374208     14.748417
     -2.047047      5.286867      5.286867     10.573734
     -2.037037      3.526001      3.526001      7.052003
     -2.027027      2.180700      2.180700      4.361399
     -2.017017      1.249255      1.249255      2.498510
     -2.007007      0.665329      0.665329      1.330658
     -1.996997      0.338407      0.338407      0.676813
     -1.986987      0.188579      0.188579      0.377158
     -1.976977      0.167912      0.167912      0.335824
     -1.966967      0.270309      0.270309      0.540618
     -1.956957      0.534349      0.534349      1.068698
     -1.946947      1.040380      1.040380      2.080760
     -1.936937      1.898424      1.898424      3.796847
     -1.926927      3.221891      3.221891      6.443782
     -1.916917      5.086541      5.086541     10.173082
     -1.906907      7.483659      7.483659     14.967318
     -1.896897     10.285603     10.285603     20.571206
     -1.886887     13.243306     13.243306     26.486613
     -1.876877     16.025364     16.025364     32.050728
     -1.866867     18.291248     18.291248     36.582496
     -1.856857     19.776590     19.776590     39.553179
     -1.846847     20.363662     20.363662     40.727324
     -1.836837     20.114774     20.114774     40.229547
     -1.826827     19.255376     19.255376     38.510752
     -1.816817     18.105636     18.105636     36.211272
     -1.806807     16.976244     16.976244     33.952487
     -1.796797     16.064503     16.064503     32.129006
     -1.786787     15.397876     15.397876     30.795751
     -1.776777     14.858435     14.858435     29.716870
     -1.766767     14.281593     14.281593     28.563185
     -1.756757     13.577131     13.577131     27.154262
     -1.746747     12.801862     12.801862     25.603723
     -1.736737     12.138400     12.138400     24.276801
     -1.726727     11.790778     11.790778     23.581555
     -1.716717     11.859398     11.859398     23.718796
     -1.706707     12.271850     12.271850     24.543700
     -1.696697     12.813028     12.813028     25.626056
     -1.686687     13.237999     13.237999     26.475999
     -1.676677     13.400506     13.400506     26.801011
     -1.666667     13.319775     13.319775     26.639550
     -1.656657     13.145476     13.145476     26.290952
     -1.646647     13.043082     13.043082     26.086164
     -1.636637     13.071276     13.071276     26.142551
     -1.626627     13.128327     13.128327     26.256654
