# EIG2DOS: Utility for SIESTA to obtain the electronic density of states
#  E. Artacho, Apr 1999, A. Garcia, Apr 2012
#  Nick R. Papior, Feb 2017
# ------------------------------------------
# Eigenvalues calculated from a non-polarized calculation
# Eigenvalues read from siesta.EIG
# Kpoint weights read from siesta.KP
# Using smearing parameter:   0.0500
# Using 1000 points in the energy range
# Selected bands: 1 to: 2981
# Emin, Emax in file for selected band(s):    -27.2765067    218.3799030
# Nbands, Nspin, Nk   =   2981     1     1
# E_F                 =    -4.2247 eV --> (shifted to ZERO)
# Broadening          =     0.0500 eV
#
#        E            N(up)  (=)   N(down)         Ntot
     -5.000000     32.228531     32.228531     64.457061
     -4.989990     36.825479     36.825479     73.650957
     -4.979980     41.069598     41.069598     82.139195
     -4.969970     44.268286     44.268286     88.536571
     -4.959960     45.839674     45.839674     91.679347
     -4.949950     45.504931     45.504931     91.009862
     -4.939940     43.389189     43.389189     86.778379
     -4.929930     40.002803     40.002803     80.005605
     -4.919920     36.129820     36.129820     72.259640
     -4.909910     32.676030     32.676030     65.352060
     -4.899900     30.513958     30.513958     61.027917
     -4.889890     30.329947     30.329947     60.659893
     -4.879880     32.466653     32.466653     64.933306
     -4.869870     36.780729     36.780729     73.561457
     -4.859860     42.577976     42.577976     85.155952
     -4.849850     48.700710     48.700710     97.401421
     -4.839840     53.794063     53.794063    107.588125
     -4.829830     56.686283     56.686283    113.372566
     -4.819820     56.740026     56.740026    113.480052
     -4.809810     54.024675     54.024675    108.049351
     -4.799800     49.237639     49.237639     98.475277
     -4.789790     43.421800     43.421800     86.843600
     -4.779780     37.615668     37.615668     75.231335
     -4.769770     32.582773     32.582773     65.165545
     -4.759760     28.702377     28.702377     57.404754
     -4.749750     26.014104     26.014104     52.028209
     -4.739740     24.348241     24.348241     48.696482
     -4.729730     23.462959     23.462959     46.925917
     -4.719720     23.135857     23.135857     46.271715
     -4.709710     23.193742     23.193742     46.387485
     -4.699700     23.494454     23.494454     46.988907
     -4.689690     23.892840     23.892840     47.785679
     -4.679680     24.227669     24.227669     48.455337
     -4.669670     24.354516     24.354516     48.709033
     -4.659660     24.222670     24.222670     48.445340
     -4.649650     23.962116     23.962116     47.924231
     -4.639640     23.925963     23.925963     47.851926
     -4.629630     24.638454     24.638454     49.276908
     -4.619620     26.633656     26.633656     53.267312
     -4.609610     30.225224     30.225224     60.450449
     -4.599600     35.298670     35.298670     70.597339
     -4.589590     41.233366     41.233366     82.466731
     -4.579580     47.022257     47.022257     94.044515
     -4.569570     51.572071     51.572071    103.144143
     -4.559560     54.075744     54.075744    108.151489
     -4.549550     54.301977     54.301977    108.603955
     -4.539540     52.673770     52.673770    105.347540
     -4.529530     50.097861     50.097861    100.195722
     -4.519520     47.615716     47.615716     95.231432
     -4.509510     46.021538     46.021538     92.043075
     -4.499499     45.600555     45.600555     91.201111
     -4.489489     46.081695     46.081695     92.163390
     -4.479479     46.803012     46.803012     93.606025
     -4.469469     47.001048     47.001048     94.002097
     -4.459459     46.095043     46.095043     92.190086
     -4.449449     43.858020     43.858020     87.716039
     -4.439439     40.433066     40.433066     80.866133
     -4.429429     36.227737     36.227737     72.455473
     -4.419419     31.764136     31.764136     63.528272
     -4.409409     27.557756     27.557756     55.115512
     -4.399399     24.054582     24.054582     48.109164
     -4.389389     21.606774     21.606774     43.213548
     -4.379379     20.447149     20.447149     40.894298
     -4.369369     20.643273     20.643273     41.286547
     -4.359359     22.052757     22.052757     44.105515
     -4.349349     24.325736     24.325736     48.651472
     -4.339339     26.985620     26.985620     53.971240
     -4.329329     29.573795     29.573795     59.147589
     -4.319319     31.800634     31.800634     63.601268
     -4.309309     33.633732     33.633732     67.267463
     -4.299299     35.280349     35.280349     70.560698
     -4.289289     37.066452     37.066452     74.132903
     -4.279279     39.255586     39.255586     78.511172
     -4.269269     41.874262     41.874262     83.748525
     -4.259259     44.614660     44.614660     89.229319
     -4.249249     46.869074     46.869074     93.738148
     -4.239239     47.908964     47.908964     95.817927
     -4.229229     47.158469     47.158469     94.316938
     -4.219219     44.453326     44.453326     88.906652
     -4.209209     40.161006     40.161006     80.322011
     -4.199199     35.090702     35.090702     70.181403
     -4.189189     30.223080     30.223080     60.446161
     -4.179179     26.381802     26.381802     52.763604
     -4.169169     23.995254     23.995254     47.990508
     -4.159159     23.043584     23.043584     46.087167
     -4.149149     23.189181     23.189181     46.378362
     -4.139139     24.005039     24.005039     48.010078
     -4.129129     25.183595     25.183595     50.367189
     -4.119119     26.632468     26.632468     53.264937
     -4.109109     28.422633     28.422633     56.845267
     -4.099099     30.623614     30.623614     61.247227
     -4.089089     33.116284     33.116284     66.232568
     -4.079079     35.493989     35.493989     70.987978
     -4.069069     37.128999     37.128999     74.257999
     -4.059059     37.398038     37.398038     74.796075
     -4.049049     35.966715     35.966715     71.933430
     -4.039039     32.986587     32.986587     65.973174
     -4.029029     29.096493     29.096493     58.192987
     -4.019019     25.223585     25.223585     50.447171
     -4.009009     22.284254     22.284254     44.568508
     -3.998999     20.926373     20.926373     41.852746
     -3.988989     21.412825     21.412825     42.825650
     -3.978979     23.658087     23.658087     47.316175
     -3.968969     27.354630     27.354630     54.709261
     -3.958959     32.105441     32.105441     64.210882
     -3.948949     37.511852     37.511852     75.023705
     -3.938939     43.216007     43.216007     86.432015
     -3.928929     48.924197     48.924197     97.848395
     -3.918919     54.426462     54.426462    108.852924
     -3.908909     59.598958     59.598958    119.197915
     -3.898899     64.362908     64.362908    128.725816
     -3.888889     68.595448     68.595448    137.190896
     -3.878879     72.029435     72.029435    144.058870
     -3.868869     74.207723     74.207723    148.415446
     -3.858859     74.546125     74.546125    149.092251
     -3.848849     72.508902     72.508902    145.017804
     -3.838839     67.837782     67.837782    135.675563
     -3.828829     60.736044     60.736044    121.472087
     -3.818819     51.917172     51.917172    103.834344
     -3.808809     42.481503     42.481503     84.963005
     -3.798799     33.657294     33.657294     67.314587
     -3.788789     26.497621     26.497621     52.995242
     -3.778779     21.636124     21.636124     43.272248
     -3.768769     19.173246     19.173246     38.346492
     -3.758759     18.712348     18.712348     37.424695
     -3.748749     19.518325     19.518325     39.036650
     -3.738739     20.744892     20.744892     41.489783
     -3.728729     21.670170     21.670170     43.340340
     -3.718719     21.886016     21.886016     43.772031
     -3.708709     21.398261     21.398261     42.796522
     -3.698699     20.611606     20.611606     41.223212
     -3.688689     20.195864     20.195864     40.391728
     -3.678679     20.860377     20.860377     41.720755
     -3.668669     23.096046     23.096046     46.192091
     -3.658659     26.967806     26.967806     53.935612
     -3.648649     32.038087     32.038087     64.076173
     -3.638639     37.462765     37.462765     74.925531
     -3.628629     42.233349     42.233349     84.466697
     -3.618619     45.473353     45.473353     90.946707
     -3.608609     46.672351     46.672351     93.344703
     -3.598599     45.776128     45.776128     91.552256
     -3.588589     43.124922     43.124922     86.249845
     -3.578579     39.296392     39.296392     78.592784
     -3.568569     34.929177     34.929177     69.858354
     -3.558559     30.578947     30.578947     61.157893
     -3.548549     26.624457     26.624457     53.248915
     -3.538539     23.225344     23.225344     46.450689
     -3.528529     20.335488     20.335488     40.670977
     -3.518519     17.774216     17.774216     35.548432
     -3.508509     15.338684     15.338684     30.677367
     -3.498498     12.916101     12.916101     25.832201
     -3.488488     10.548021     10.548021     21.096043
     -3.478478      8.421120      8.421120     16.842239
     -3.468468      6.795131      6.795131     13.590262
     -3.458458      5.904004      5.904004     11.808007
     -3.448448      5.868268      5.868268     11.736536
     -3.438438      6.643245      6.643245     13.286490
     -3.428428      8.014627      8.014627     16.029254
     -3.418418      9.646066      9.646066     19.292133
     -3.408408     11.175407     11.175407     22.350813
     -3.398398     12.339281     12.339281     24.678563
     -3.388388     13.085244     13.085244     26.170488
     -3.378378     13.623335     13.623335     27.246670
     -3.368368     14.387433     14.387433     28.774865
     -3.358358     15.913800     15.913800     31.827599
     -3.348348     18.676654     18.676654     37.353308
     -3.338338     22.928747     22.928747     45.857493
     -3.328328     28.581251     28.581251     57.162501
     -3.318318     35.142943     35.142943     70.285885
     -3.308308     41.739800     41.739800     83.479601
     -3.298298     47.242709     47.242709     94.485417
     -3.288288     50.513620     50.513620    101.027241
     -3.278278     50.724870     50.724870    101.449740
     -3.268268     47.640424     47.640424     95.280848
     -3.258258     41.728494     41.728494     83.456988
     -3.248248     34.036735     34.036735     68.073471
     -3.238238     25.876600     25.876600     51.753201
     -3.228228     18.457162     18.457162     36.914323
     -3.218218     12.618429     12.618429     25.236859
     -3.208208      8.740401      8.740401     17.480802
     -3.198198      6.805203      6.805203     13.610407
     -3.188188      6.531248      6.531248     13.062496
     -3.178178      7.504675      7.504675     15.009350
     -3.168168      9.279344      9.279344     18.558687
     -3.158158     11.456274     11.456274     22.912547
     -3.148148     13.757220     13.757220     27.514439
     -3.138138     16.080590     16.080590     32.161179
     -3.128128     18.502931     18.502931     37.005863
     -3.118118     21.196859     21.196859     42.393717
     -3.108108     24.280798     24.280798     48.561597
     -3.098098     27.668748     27.668748     55.337497
     -3.088088     31.007713     31.007713     62.015425
     -3.078078     33.753919     33.753919     67.507838
     -3.068068     35.362715     35.362715     70.725430
     -3.058058     35.498247     35.498247     70.996494
     -3.048048     34.153911     34.153911     68.307822
     -3.038038     31.625575     31.625575     63.251151
     -3.028028     28.365119     28.365119     56.730237
     -3.018018     24.806759     24.806759     49.613519
     -3.008008     21.262473     21.262473     42.524946
     -2.997998     17.927785     17.927785     35.855569
     -2.987988     14.966827     14.966827     29.933654
     -2.977978     12.603685     12.603685     25.207370
     -2.967968     11.155551     11.155551     22.311103
     -2.957958     10.985200     10.985200     21.970400
     -2.947948     12.393026     12.393026     24.786051
     -2.937938     15.491474     15.491474     30.982947
     -2.927928     20.107321     20.107321     40.214642
     -2.917918     25.749798     25.749798     51.499597
     -2.907908     31.668859     31.668859     63.337718
     -2.897898     37.004327     37.004327     74.008653
     -2.887888     40.992639     40.992639     81.985279
     -2.877878     43.165425     43.165425     86.330850
     -2.867868     43.463441     43.463441     86.926881
     -2.857858     42.214571     42.214571     84.429143
     -2.847848     39.979991     39.979991     79.959982
     -2.837838     37.332791     37.332791     74.665582
     -2.827828     34.666021     34.666021     69.332042
     -2.817818     32.112239     32.112239     64.224478
     -2.807808     29.599801     29.599801     59.199603
     -2.797798     27.001584     27.001584     54.003167
     -2.787788     24.287238     24.287238     48.574475
     -2.777778     21.594720     21.594720     43.189441
     -2.767768     19.187566     19.187566     38.375133
     -2.757758     17.331979     17.331979     34.663958
     -2.747748     16.173318     16.173318     32.346636
     -2.737738     15.688292     15.688292     31.376583
     -2.727728     15.738752     15.738752     31.477504
     -2.717718     16.185957     16.185957     32.371913
     -2.707708     16.983393     16.983393     33.966787
     -2.697698     18.180330     18.180330     36.360661
     -2.687688     19.830902     19.830902     39.661805
     -2.677678     21.873910     21.873910     43.747820
     -2.667668     24.076562     24.076562     48.153124
     -2.657658     26.097176     26.097176     52.194352
     -2.647648     27.640133     27.640133     55.280266
     -2.637638     28.607928     28.607928     57.215856
     -2.627628     29.150822     29.150822     58.301645
     -2.617618     29.579844     29.579844     59.159687
     -2.607608     30.197312     30.197312     60.394624
     -2.597598     31.146737     31.146737     62.293474
     -2.587588     32.359179     32.359179     64.718358
     -2.577578     33.600977     33.600977     67.201953
     -2.567568     34.567352     34.567352     69.134704
     -2.557558     34.961087     34.961087     69.922174
     -2.547548     34.537921     34.537921     69.075843
     -2.537538     33.143678     33.143678     66.287356
     -2.527528     30.770785     30.770785     61.541570
     -2.517518     27.624446     27.624446     55.248892
     -2.507508     24.150188     24.150188     48.300375
     -2.497497     20.974106     20.974106     41.948212
     -2.487487     18.750042     18.750042     37.500083
     -2.477477     17.963922     17.963922     35.927844
     -2.467467     18.776944     18.776944     37.553888
     -2.457457     20.978124     20.978124     41.956248
     -2.447447     24.070806     24.070806     48.141612
     -2.437437     27.459779     27.459779     54.919558
     -2.427427     30.660663     30.660663     61.321326
     -2.417417     33.440749     33.440749     66.881497
     -2.407407     35.828645     35.828645     71.657290
     -2.397397     37.989748     37.989748     75.979497
     -2.387387     40.029940     40.029940     80.059879
     -2.377377     41.829157     41.829157     83.658314
     -2.367367     42.997829     42.997829     85.995658
     -2.357357     42.992818     42.992818     85.985636
     -2.347347     41.349863     41.349863     82.699726
     -2.337337     37.926321     37.926321     75.852641
     -2.327327     33.037071     33.037071     66.074141
     -2.317317     27.417095     27.417095     54.834190
     -2.307307     22.028806     22.028806     44.057611
     -2.297297     17.801505     17.801505     35.603011
     -2.287287     15.407171     15.407171     30.814342
     -2.277277     15.140752     15.140752     30.281505
     -2.267267     16.915981     16.915981     33.831962
     -2.257257     20.344708     20.344708     40.689415
     -2.247247     24.853893     24.853893     49.707787
     -2.237237     29.802019     29.802019     59.604039
     -2.227227     34.571373     34.571373     69.142746
     -2.217217     38.626569     38.626569     77.253138
     -2.207207     41.542701     41.542701     83.085402
     -2.197197     43.018353     43.018353     86.036706
     -2.187187     42.893509     42.893509     85.787017
     -2.177177     41.182454     41.182454     82.364909
     -2.167167     38.107863     38.107863     76.215725
     -2.157157     34.099821     34.099821     68.199641
     -2.147147     29.724860     29.724860     59.449720
     -2.137137     25.544573     25.544573     51.089146
     -2.127127     21.953188     21.953188     43.906376
     -2.117117     19.071721     19.071721     38.143442
     -2.107107     16.756021     16.756021     33.512042
     -2.097097     14.715302     14.715302     29.430605
     -2.087087     12.676514     12.676514     25.353027
     -2.077077     10.509465     10.509465     21.018929
     -2.067067      8.259018      8.259018     16.518035
     -2.057057      6.088444      6.088444     12.176887
     -2.047047      4.182632      4.182632      8.365264
     -2.037037      2.667470      2.667470      5.334940
     -2.027027      1.577246      1.577246      3.154493
     -2.017017      0.868838      0.868838      1.737676
     -2.007007      0.461067      0.461067      0.922134
     -1.996997      0.276359      0.276359      0.552717
     -1.986987      0.272344      0.272344      0.544688
     -1.976977      0.461798      0.461798      0.923597
     -1.966967      0.922965      0.922965      1.845931
     -1.956957      1.798495      1.798495      3.596991
     -1.946947      3.274948      3.274948      6.549896
     -1.936937      5.533584      5.533584     11.067168
     -1.926927      8.672817      8.672817     17.345635
     -1.916917     12.622297     12.622297     25.244594
     -1.906907     17.087437     17.087437     34.174873
     -1.896897     21.564899     21.564899     43.129797
     -1.886887     25.444390     25.444390     50.888780
     -1.876877     28.169280     28.169280     56.338560
     -1.866867     29.394245     29.394245     58.788490
     -1.856857     29.076778     29.076778     58.153556
     -1.846847     27.472148     27.472148     54.944296
     -1.836837     25.044556     25.044556     50.089112
     -1.826827     22.333360     22.333360     44.666721
     -1.816817     19.814846     19.814846     39.629693
     -1.806807     17.790611     17.790611     35.581222
     -1.796797     16.327432     16.327432     32.654864
     -1.786787     15.268385     15.268385     30.536770
     -1.776777     14.318400     14.318400     28.636801
     -1.766767     13.177049     13.177049     26.354098
     -1.756757     11.664482     11.664482     23.328965
     -1.746747      9.786150      9.786150     19.572300
     -1.736737      7.713808      7.713808     15.427615
     -1.726727      5.704751      5.704751     11.409502
     -1.716717      4.008857      4.008857      8.017714
     -1.706707      2.808057      2.808057      5.616114
     -1.696697      2.203388      2.203388      4.406776
     -1.686687      2.233074      2.233074      4.466149
     -1.676677      2.890667      2.890667      5.781334
     -1.666667      4.120711      4.120711      8.241423
     -1.656657      5.792763      5.792763     11.585525
     -1.646647      7.677763      7.677763     15.355525
     -1.636637      9.459145      9.459145     18.918290
     -1.626627     10.797284     10.797284     21.594567
