# EIG2DOS: Utility for SIESTA to obtain the electronic density of states
#  E. Artacho, Apr 1999, A. Garcia, Apr 2012
#  Nick R. Papior, Feb 2017
# ------------------------------------------
# Eigenvalues calculated from a non-polarized calculation
# Eigenvalues read from siesta.EIG
# Kpoint weights read from siesta.KP
# Using smearing parameter:   0.0500
# Using 1000 points in the energy range
# Selected bands: 1 to: 2981
# Emin, Emax in file for selected band(s):    -27.2938734    218.4053510
# Nbands, Nspin, Nk   =   2981     1     1
# E_F                 =    -4.1869 eV --> (shifted to ZERO)
# Broadening          =     0.0500 eV
#
#        E            N(up)  (=)   N(down)         Ntot
     -5.000000     32.680953     32.680953     65.361906
     -4.989990     38.012780     38.012780     76.025561
     -4.979980     42.878233     42.878233     85.756467
     -4.969970     46.388433     46.388433     92.776866
     -4.959960     47.862396     47.862396     95.724792
     -4.949950     47.058363     47.058363     94.116727
     -4.939940     44.257164     44.257164     88.514327
     -4.929930     40.183075     40.183075     80.366151
     -4.919920     35.819402     35.819402     71.638803
     -4.909910     32.197388     32.197388     64.394776
     -4.899900     30.207268     30.207268     60.414536
     -4.889890     30.438365     30.438365     60.876729
     -4.879880     33.044295     33.044295     66.088590
     -4.869870     37.656734     37.656734     75.313468
     -4.859860     43.402374     43.402374     86.804747
     -4.849850     49.069106     49.069106     98.138212
     -4.839840     53.407635     53.407635    106.815270
     -4.829830     55.477592     55.477592    110.955184
     -4.819820     54.906690     54.906690    109.813380
     -4.809810     51.959757     51.959757    103.919514
     -4.799800     47.398833     47.398833     94.797666
     -4.789790     42.207371     42.207371     84.414742
     -4.779780     37.300215     37.300215     74.600430
     -4.769770     33.324665     33.324665     66.649330
     -4.759760     30.594608     30.594608     61.189216
     -4.749750     29.131143     29.131143     58.262287
     -4.739740     28.746972     28.746972     57.493943
     -4.729730     29.119923     29.119923     58.239846
     -4.719720     29.837870     29.837870     59.675740
     -4.709710     30.434461     30.434461     60.868923
     -4.699700     30.449033     30.449033     60.898065
     -4.689690     29.527464     29.527464     59.054928
     -4.679680     27.545382     27.545382     55.090763
     -4.669670     24.704908     24.704908     49.409817
     -4.659660     21.552529     21.552529     43.105057
     -4.649650     18.891849     18.891849     37.783698
     -4.639640     17.604070     17.604070     35.208141
     -4.629630     18.418911     18.418911     36.837822
     -4.619620     21.691437     21.691437     43.382875
     -4.609610     27.243266     27.243266     54.486533
     -4.599600     34.326010     34.326010     68.652020
     -4.589590     41.750521     41.750521     83.501042
     -4.579580     48.180828     48.180828     96.361657
     -4.569570     52.519629     52.519629    105.039258
     -4.559560     54.248950     54.248950    108.497899
     -4.549550     53.582896     53.582896    107.165792
     -4.539540     51.358448     51.358448    102.716896
     -4.529530     48.704220     48.704220     97.408440
     -4.519520     46.624221     46.624221     93.248441
     -4.509510     45.663691     45.663691     91.327383
     -4.499499     45.777740     45.777740     91.555481
     -4.489489     46.430615     46.430615     92.861229
     -4.479479     46.859983     46.859983     93.719966
     -4.469469     46.384840     46.384840     92.769679
     -4.459459     44.635326     44.635326     89.270653
     -4.449449     41.631992     41.631992     83.263985
     -4.439439     37.715422     37.715422     75.430843
     -4.429429     33.390124     33.390124     66.780248
     -4.419419     29.169883     29.169883     58.339767
     -4.409409     25.486612     25.486612     50.973224
     -4.399399     22.669901     22.669901     45.339801
     -4.389389     20.957056     20.957056     41.914112
     -4.379379     20.485341     20.485341     40.970683
     -4.369369     21.252017     21.252017     42.504035
     -4.359359     23.073932     23.073932     46.147863
     -4.349349     25.597740     25.597740     51.195480
     -4.339339     28.387089     28.387089     56.774178
     -4.329329     31.062134     31.062134     62.124269
     -4.319319     33.426953     33.426953     66.853905
     -4.309309     35.518949     35.518949     71.037898
     -4.299299     37.550308     37.550308     75.100617
     -4.289289     39.761615     39.761615     79.523230
     -4.279279     42.246788     42.246788     84.493577
     -4.269269     44.823599     44.823599     89.647198
     -4.259259     47.013459     47.013459     94.026917
     -4.249249     48.159312     48.159312     96.318624
     -4.239239     47.655996     47.655996     95.311993
     -4.229229     45.209834     45.209834     90.419667
     -4.219219     41.013518     41.013518     82.027035
     -4.209209     35.745419     35.745419     71.490838
     -4.199199     30.378025     30.378025     60.756049
     -4.189189     25.871245     25.871245     51.742491
     -4.179179     22.881357     22.881357     45.762714
     -4.169169     21.604992     21.604992     43.209984
     -4.159159     21.809666     21.809666     43.619331
     -4.149149     23.017037     23.017037     46.034073
     -4.139139     24.743359     24.743359     49.486717
     -4.129129     26.685565     26.685565     53.371129
     -4.119119     28.771997     28.771997     57.543993
     -4.109109     31.061023     31.061023     62.122045
     -4.099099     33.546375     33.546375     67.092750
     -4.089089     35.983381     35.983381     71.966761
     -4.079079     37.852017     37.852017     75.704033
     -4.069069     38.506892     38.506892     77.013783
     -4.059059     37.457460     37.457460     74.914921
     -4.049049     34.636527     34.636527     69.273054
     -4.039039     30.510141     30.510141     61.020282
     -4.029029     25.965751     25.965751     51.931503
     -4.019019     22.034895     22.034895     44.069791
     -4.009009     19.585690     19.585690     39.171379
     -3.998999     19.115888     19.115888     38.231776
     -3.988989     20.705251     20.705251     41.410503
     -3.978979     24.100974     24.100974     48.201949
     -3.968969     28.862065     28.862065     57.724130
     -3.958959     34.493403     34.493403     68.986806
     -3.948949     40.537589     40.537589     81.075177
     -3.938939     46.627701     46.627701     93.255401
     -3.928929     52.513145     52.513145    105.026289
     -3.918919     58.056911     58.056911    116.113822
     -3.908909     63.190125     63.190125    126.380250
     -3.898899     67.821161     67.821161    135.642323
     -3.888889     71.730128     71.730128    143.460257
     -3.878879     74.508506     74.508506    149.017012
     -3.868869     75.598958     75.598958    151.197916
     -3.858859     74.446200     74.446200    148.892400
     -3.848849     70.710152     70.710152    141.420304
     -3.838839     64.453354     64.453354    128.906709
     -3.828829     56.218590     56.218590    112.437181
     -3.818819     46.956541     46.956541     93.913082
     -3.808809     37.823054     37.823054     75.646109
     -3.798799     29.912872     29.912872     59.825745
     -3.788789     24.013714     24.013714     48.027427
     -3.778779     20.450332     20.450332     40.900664
     -3.768769     19.054216     19.054216     38.108432
     -3.758759     19.256557     19.256557     38.513113
     -3.748749     20.271774     20.271774     40.543547
     -3.738739     21.321442     21.321442     42.642884
     -3.728729     21.843704     21.843704     43.687409
     -3.718719     21.638721     21.638721     43.277442
     -3.708709     20.914026     20.914026     41.828052
     -3.698699     20.213612     20.213612     40.427224
     -3.688689     20.240972     20.240972     40.481944
     -3.678679     21.617216     21.617216     43.234433
     -3.668669     24.643766     24.643766     49.287532
     -3.658659     29.151575     29.151575     58.303150
     -3.648649     34.501137     34.501137     69.002275
     -3.638639     39.746169     39.746169     79.492339
     -3.628629     43.906191     43.906191     87.812383
     -3.618619     46.243870     46.243870     92.487741
     -3.608609     46.442987     46.442987     92.885974
     -3.598599     44.634706     44.634706     89.269412
     -3.588589     41.291319     41.291319     82.582637
     -3.578579     37.053844     37.053844     74.107688
     -3.568569     32.561402     32.561402     65.122804
     -3.558559     28.321146     28.321146     56.642292
     -3.548549     24.630239     24.630239     49.260477
     -3.538539     21.553472     21.553472     43.106943
     -3.528529     18.961642     18.961642     37.923284
     -3.518519     16.626610     16.626610     33.253221
     -3.508509     14.345123     14.345123     28.690246
     -3.498498     12.043348     12.043348     24.086696
     -3.488488      9.818778      9.818778     19.637556
     -3.478478      7.906801      7.906801     15.813603
     -3.468468      6.594965      6.594965     13.189929
     -3.458458      6.125573      6.125573     12.251146
     -3.448448      6.621080      6.621080     13.242159
     -3.438438      8.049071      8.049071     16.098142
     -3.428428     10.229394     10.229394     20.458788
     -3.418418     12.878745     12.878745     25.757489
     -3.408408     15.682049     15.682049     31.364098
     -3.398398     18.371751     18.371751     36.743501
     -3.388388     20.790999     20.790999     41.581997
     -3.378378     22.922006     22.922006     45.844011
     -3.368368     24.875128     24.875128     49.750256
     -3.358358     26.846427     26.846427     53.692854
     -3.348348     29.052746     29.052746     58.105493
     -3.338338     31.648065     31.648065     63.296131
     -3.328328     34.627654     34.627654     69.255308
     -3.318318     37.745337     37.745337     75.490675
     -3.308308     40.491793     40.491793     80.983585
     -3.298298     42.181258     42.181258     84.362517
     -3.288288     42.152443     42.152443     84.304886
     -3.278278     40.021273     40.021273     80.042546
     -3.268268     35.873210     35.873210     71.746421
     -3.258258     30.294017     30.294017     60.588034
     -3.248248     24.212485     24.212485     48.424970
     -3.238238     18.621495     18.621495     37.242991
     -3.228228     14.295901     14.295901     28.591802
     -3.218218     11.610950     11.610950     23.221901
     -3.208208     10.505586     10.505586     21.011173
     -3.198198     10.575203     10.575203     21.150405
     -3.188188     11.246248     11.246248     22.492496
     -3.178178     11.977982     11.977982     23.955965
     -3.168168     12.438756     12.438756     24.877511
     -3.158158     12.608674     12.608674     25.217349
     -3.148148     12.774154     12.774154     25.548308
     -3.138138     13.409201     13.409201     26.818402
     -3.128128     14.977564     14.977564     29.955128
     -3.118118     17.722773     17.722773     35.445547
     -3.108108     21.524009     21.524009     43.048018
     -3.098098     25.878008     25.878008     51.756016
     -3.088088     30.024114     30.024114     60.048228
     -3.078078     33.173426     33.173426     66.346852
     -3.068068     34.755140     34.755140     69.510279
     -3.058058     34.578924     34.578924     69.157848
     -3.048048     32.846762     32.846762     65.693523
     -3.038038     30.020083     30.020083     60.040165
     -3.028028     26.619830     26.619830     53.239660
     -3.018018     23.064750     23.064750     46.129500
     -3.008008     19.619335     19.619335     39.238671
     -2.997998     16.451293     16.451293     32.902587
     -2.987988     13.736832     13.736832     27.473664
     -2.977978     11.736403     11.736403     23.472806
     -2.967968     10.793827     10.793827     21.587654
     -2.957958     11.259034     11.259034     22.518069
     -2.947948     13.368793     13.368793     26.737586
     -2.937938     17.130424     17.130424     34.260847
     -2.927928     22.248859     22.248859     44.497719
     -2.917918     28.127439     28.127439     56.254877
     -2.907908     33.958093     33.958093     67.916187
     -2.897898     38.891987     38.891987     77.783973
     -2.887888     42.248601     42.248601     84.497201
     -2.877878     43.693670     43.693670     87.387340
     -2.867868     43.313903     43.313903     86.627805
     -2.857858     41.549945     41.549945     83.099890
     -2.847848     39.009112     39.009112     78.018224
     -2.837838     36.237155     36.237155     72.474311
     -2.827828     33.550611     33.550611     67.101221
     -2.817818     31.001267     31.001267     62.002535
     -2.807808     28.475406     28.475406     56.950813
     -2.797798     25.860398     25.860398     51.720795
     -2.787788     23.180219     23.180219     46.360439
     -2.777778     20.626822     20.626822     41.253644
     -2.767768     18.479896     18.479896     36.959792
     -2.757758     16.973799     16.973799     33.947599
     -2.747748     16.197776     16.197776     32.395552
     -2.737738     16.088395     16.088395     32.176791
     -2.727728     16.509029     16.509029     33.018058
     -2.717718     17.351974     17.351974     34.703948
     -2.707708     18.584860     18.584860     37.169720
     -2.697698     20.206072     20.206072     40.412144
     -2.687688     22.145651     22.145651     44.291302
     -2.677678     24.196544     24.196544     48.393087
     -2.667668     26.046897     26.046897     52.093794
     -2.657658     27.412834     27.412834     54.825668
     -2.647648     28.192928     28.192928     56.385855
     -2.637638     28.539846     28.539846     57.079693
     -2.627628     28.793706     28.793706     57.587412
     -2.617618     29.311378     29.311378     58.622757
     -2.607608     30.290982     30.290982     60.581964
     -2.597598     31.685610     31.685610     63.371219
     -2.587588     33.234599     33.234599     66.469197
     -2.577578     34.568530     34.568530     69.137060
     -2.567568     35.318222     35.318222     70.636444
     -2.557558     35.187370     35.187370     70.374739
     -2.547548     33.996367     33.996367     67.992734
     -2.537538     31.725274     31.725274     63.450547
     -2.527528     28.562656     28.562656     57.125312
     -2.517518     24.930427     24.930427     49.860854
     -2.507508     21.441614     21.441614     42.883227
     -2.497497     18.773988     18.773988     37.547975
     -2.487487     17.489705     17.489705     34.979410
     -2.477477     17.866899     17.866899     35.733798
     -2.467467     19.812315     19.812315     39.624630
     -2.457457     22.894886     22.894886     45.789772
     -2.447447     26.493392     26.493392     52.986783
     -2.437437     30.005270     30.005270     60.010540
     -2.427427     33.035200     33.035200     66.070400
     -2.417417     35.484314     35.484314     70.968628
     -2.407407     37.498168     37.498168     74.996336
     -2.397397     39.293521     39.293521     78.587042
     -2.387387     40.945403     40.945403     81.890807
     -2.377377     42.245620     42.245620     84.491240
     -2.367367     42.719400     42.719400     85.438799
     -2.357357     41.811281     41.811281     83.622561
     -2.347347     39.159313     39.159313     78.318627
     -2.337337     34.821637     34.821637     69.643274
     -2.327327     29.339402     29.339402     58.678803
     -2.317317     23.606192     23.606192     47.212384
     -2.307307     18.612526     18.612526     37.225052
     -2.297297     15.183987     15.183987     30.367974
     -2.287287     13.810619     13.810619     27.621238
     -2.277277     14.600561     14.600561     29.201122
     -2.267267     17.330883     17.330883     34.661765
     -2.257257     21.543993     21.543993     43.087987
     -2.247247     26.647209     26.647209     53.294419
     -2.237237     31.995438     31.995438     63.990876
     -2.227227     36.954815     36.954815     73.909631
     -2.217217     40.953548     40.953548     81.907095
     -2.207207     43.528397     43.528397     87.056795
     -2.197197     44.373804     44.373804     88.747609
     -2.187187     43.393852     43.393852     86.787705
     -2.177177     40.743722     40.743722     81.487445
     -2.167167     36.832716     36.832716     73.665432
     -2.157157     32.259491     32.259491     64.518981
     -2.147147     27.673694     27.673694     55.347388
     -2.137137     23.600925     23.600925     47.201849
     -2.127127     20.302949     20.302949     40.605898
     -2.117117     17.742094     17.742094     35.484188
     -2.107107     15.670773     15.670773     31.341546
     -2.097097     13.801177     13.801177     27.602353
     -2.087087     11.968798     11.968798     23.937597
     -2.077077     10.212246     10.212246     20.424492
     -2.067067      8.741230      8.741230     17.482460
     -2.057057      7.820813      7.820813     15.641626
     -2.047047      7.632153      7.632153     15.264306
     -2.037037      8.169517      8.169517     16.339033
     -2.027027      9.211331      9.211331     18.422661
     -2.017017     10.374040     10.374040     20.748079
     -2.007007     11.229640     11.229640     22.459280
     -1.996997     11.445120     11.445120     22.890239
     -1.986987     10.891988     10.891988     21.783977
     -1.976977      9.684839      9.684839     19.369678
     -1.966967      8.138424      8.138424     16.276848
     -1.956957      6.667708      6.667708     13.335416
     -1.946947      5.674292      5.674292     11.348585
     -1.936937      5.456362      5.456362     10.912723
     -1.926927      6.157390      6.157390     12.314780
     -1.916917      7.749919      7.749919     15.499838
     -1.906907     10.045911     10.045911     20.091822
     -1.896897     12.730348     12.730348     25.460695
     -1.886887     15.417887     15.417887     30.835774
     -1.876877     17.727183     17.727183     35.454367
     -1.866867     19.358424     19.358424     38.716848
     -1.856857     20.155133     20.155133     40.310265
     -1.846847     20.133974     20.133974     40.267947
     -1.836837     19.472420     19.472420     38.944839
     -1.826827     18.451434     18.451434     36.902868
     -1.816817     17.362011     17.362011     34.724022
     -1.806807     16.402269     16.402269     32.804538
     -1.796797     15.606944     15.606944     31.213888
     -1.786787     14.847084     14.847084     29.694169
     -1.776777     13.907078     13.907078     27.814157
     -1.766767     12.603513     12.603513     25.207026
     -1.756757     10.884967     10.884967     21.769933
     -1.746747      8.863557      8.863557     17.727113
     -1.736737      6.770600      6.770600     13.541199
     -1.726727      4.870884      4.870884      9.741768
     -1.716717      3.385463      3.385463      6.770927
     -1.706707      2.455849      2.455849      4.911699
     -1.696697      2.149596      2.149596      4.299192
     -1.686687      2.481958      2.481958      4.963917
     -1.676677      3.424589      3.424589      6.849177
     -1.666667      4.889061      4.889061      9.778122
     -1.656657      6.698162      6.698162     13.396324
     -1.646647      8.575459      8.575459     17.150917
     -1.636637     10.181567     10.181567     20.363134
     -1.626627     11.202321     11.202321     22.404641
