# EIG2DOS: Utility for SIESTA to obtain the electronic density of states
#  E. Artacho, Apr 1999, A. Garcia, Apr 2012
#  Nick R. Papior, Feb 2017
# ------------------------------------------
# Eigenvalues calculated from a non-polarized calculation
# Eigenvalues read from siesta.EIG
# Kpoint weights read from siesta.KP
# Using smearing parameter:   0.0500
# Using 1000 points in the energy range
# Selected bands: 1 to: 2981
# Emin, Emax in file for selected band(s):    -27.0322144    218.3064200
# Nbands, Nspin, Nk   =   2981     1     1
# E_F                 =    -4.3031 eV --> (shifted to ZERO)
# Broadening          =     0.0500 eV
#
#        E            N(up)  (=)   N(down)         Ntot
     -5.000000     41.009369     41.009369     82.018738
     -4.989990     46.022741     46.022741     92.045482
     -4.979980     50.089067     50.089067    100.178134
     -4.969970     52.619809     52.619809    105.239617
     -4.959960     53.210744     53.210744    106.421488
     -4.949950     51.773991     51.773991    103.547981
     -4.939940     48.588601     48.588601     97.177202
     -4.929930     44.256061     44.256061     88.512123
     -4.919920     39.589822     39.589822     79.179644
     -4.909910     35.484941     35.484941     70.969882
     -4.899900     32.794760     32.794760     65.589521
     -4.889890     32.206053     32.206053     64.412107
     -4.879880     34.090253     34.090253     68.180507
     -4.869870     38.340363     38.340363     76.680726
     -4.859860     44.263003     44.263003     88.526006
     -4.849850     50.628104     50.628104    101.256209
     -4.839840     55.936052     55.936052    111.872104
     -4.829830     58.849063     58.849063    117.698126
     -4.819820     58.619159     58.619159    117.238319
     -4.809810     55.315736     55.315736    110.631472
     -4.799800     49.745705     49.745705     99.491410
     -4.789790     43.116777     43.116777     86.233554
     -4.779780     36.617239     36.617239     73.234477
     -4.769770     31.098560     31.098560     62.197120
     -4.759760     26.957338     26.957338     53.914676
     -4.749750     24.194937     24.194937     48.389873
     -4.739740     22.563421     22.563421     45.126843
     -4.729730     21.708787     21.708787     43.417574
     -4.719720     21.267190     21.267190     42.534380
     -4.709710     20.913478     20.913478     41.826956
     -4.699700     20.382561     20.382561     40.765122
     -4.689690     19.486270     19.486270     38.972541
     -4.679680     18.140545     18.140545     36.281090
     -4.669670     16.404393     16.404393     32.808786
     -4.659660     14.516323     14.516323     29.032647
     -4.649650     12.903281     12.903281     25.806562
     -4.639640     12.138653     12.138653     24.277306
     -4.629630     12.839088     12.839088     25.678177
     -4.619620     15.508319     15.508319     31.016637
     -4.609610     20.356171     20.356171     40.712342
     -4.599600     27.142547     27.142547     54.285095
     -4.589590     35.113732     35.113732     70.227464
     -4.579580     43.094258     43.094258     86.188516
     -4.569570     49.753596     49.753596     99.507192
     -4.559560     53.987953     53.987953    107.975906
     -4.549550     55.281835     55.281835    110.563669
     -4.539540     53.893516     53.893516    107.787033
     -4.529530     50.769220     50.769220    101.538440
     -4.519520     47.208446     47.208446     94.416893
     -4.509510     44.414891     44.414891     88.829781
     -4.499499     43.113397     43.113397     86.226794
     -4.489489     43.372978     43.372978     86.745956
     -4.479479     44.677043     44.677043     89.354086
     -4.469469     46.179380     46.179380     92.358761
     -4.459459     47.025563     47.025563     94.051125
     -4.449449     46.621319     46.621319     93.242639
     -4.439439     44.776269     44.776269     89.552538
     -4.429429     41.711010     41.711010     83.422019
     -4.419419     37.959201     37.959201     75.918403
     -4.409409     34.212195     34.212195     68.424390
     -4.399399     31.148250     31.148250     62.296500
     -4.389389     29.277032     29.277032     58.554064
     -4.379379     28.824914     28.824914     57.649827
     -4.369369     29.686852     29.686852     59.373703
     -4.359359     31.464794     31.464794     62.929589
     -4.349349     33.591107     33.591107     67.182215
     -4.339339     35.503097     35.503097     71.006193
     -4.329329     36.809847     36.809847     73.619694
     -4.319319     37.393227     37.393227     74.786453
     -4.309309     37.413220     37.413220     74.826440
     -4.299299     37.227261     37.227261     74.454522
     -4.289289     37.261013     37.261013     74.522026
     -4.279279     37.871813     37.871813     75.743627
     -4.269269     39.232807     39.232807     78.465614
     -4.259259     41.254402     41.254402     82.508804
     -4.249249     43.562053     43.562053     87.124106
     -4.239239     45.556466     45.556466     91.112932
     -4.229229     46.570488     46.570488     93.140977
     -4.219219     46.093415     46.093415     92.186831
     -4.209209     43.978587     43.978587     87.957174
     -4.199199     40.529360     40.529360     81.058720
     -4.189189     36.403720     36.403720     72.807441
     -4.179179     32.372109     32.372109     64.744218
     -4.169169     29.045970     29.045970     58.091939
     -4.159159     26.708712     26.708712     53.417425
     -4.149149     25.317922     25.317922     50.635845
     -4.139139     24.652241     24.652241     49.304482
     -4.129129     24.506949     24.506949     49.013898
     -4.119119     24.830127     24.830127     49.660254
     -4.109109     25.730600     25.730600     51.461201
     -4.099099     27.355089     27.355089     54.710177
     -4.089089     29.699087     29.699087     59.398174
     -4.079079     32.458957     32.458957     64.917915
     -4.069069     35.026668     35.026668     70.053335
     -4.059059     36.663331     36.663331     73.326662
     -4.049049     36.787486     36.787486     73.574971
     -4.039039     35.236866     35.236866     70.473733
     -4.029029     32.364075     32.364075     64.728151
     -4.019019     28.914734     28.914734     57.829468
     -4.009009     25.757509     25.757509     51.515017
     -3.998999     23.609502     23.609502     47.219005
     -3.988989     22.882206     22.882206     45.764413
     -3.978979     23.683249     23.683249     47.366497
     -3.968969     25.915683     25.915683     51.831367
     -3.958959     29.381698     29.381698     58.763396
     -3.948949     33.833363     33.833363     67.666727
     -3.938939     38.978667     38.978667     77.957335
     -3.928929     44.490244     44.490244     88.980488
     -3.918919     50.049783     50.049783    100.099565
     -3.908909     55.412492     55.412492    110.824985
     -3.898899     60.438783     60.438783    120.877565
     -3.888889     65.048315     65.048315    130.096630
     -3.878879     69.102341     69.102341    138.204683
     -3.868869     72.279447     72.279447    144.558893
     -3.858859     74.035793     74.035793    148.071586
     -3.848849     73.711008     73.711008    147.422016
     -3.838839     70.765223     70.765223    141.530446
     -3.828829     65.051746     65.051746    130.103492
     -3.818819     56.992652     56.992652    113.985305
     -3.808809     47.558759     47.558759     95.117517
     -3.798799     38.045479     38.045479     76.090957
     -3.788789     29.730664     29.730664     59.461327
     -3.778779     23.546908     23.546908     47.093816
     -3.768769     19.880259     19.880259     39.760518
     -3.758759     18.542831     18.542831     37.085663
     -3.748749     18.900193     18.900193     37.800386
     -3.738739     20.094743     20.094743     40.189487
     -3.728729     21.297243     21.297243     42.594486
     -3.718719     21.927170     21.927170     43.854341
     -3.708709     21.795820     21.795820     43.591640
     -3.698699     21.140337     21.140337     42.280675
     -3.688689     20.535713     20.535713     41.071426
     -3.678679     20.698939     20.698939     41.397878
     -3.668669     22.233201     22.233201     44.466402
     -3.658659     25.389866     25.389866     50.779732
     -3.648649     29.935095     29.935095     59.870190
     -3.638639     35.181298     35.181298     70.362597
     -3.628629     40.181873     40.181873     80.363746
     -3.618619     44.015834     44.015834     88.031667
     -3.608609     46.047312     46.047312     92.094624
     -3.598599     46.062062     46.062062     92.124124
     -3.588589     44.250103     44.250103     88.500205
     -3.578579     41.076525     41.076525     82.153050
     -3.568569     37.115992     37.115992     74.231983
     -3.558559     32.910275     32.910275     65.820550
     -3.548549     28.870971     28.870971     57.741943
     -3.538539     25.227041     25.227041     50.454082
     -3.528529     22.018122     22.018122     44.036244
     -3.518519     19.139662     19.139662     38.279323
     -3.508509     16.433997     16.433997     32.867994
     -3.498498     13.796233     13.796233     27.592466
     -3.488488     11.248785     11.248785     22.497570
     -3.478478      8.951251      8.951251     17.902502
     -3.468468      7.145401      7.145401     14.290802
     -3.458458      6.064482      6.064482     12.128965
     -3.448448      5.844406      5.844406     11.688812
     -3.438438      6.464595      6.464595     12.929189
     -3.428428      7.733084      7.733084     15.466168
     -3.418418      9.322487      9.322487     18.644974
     -3.408408     10.855768     10.855768     21.711535
     -3.398398     12.025027     12.025027     24.050054
     -3.388388     12.705373     12.705373     25.410746
     -3.378378     13.015476     13.015476     26.030952
     -3.368368     13.291723     13.291723     26.583445
     -3.358358     13.980931     13.980931     27.961862
     -3.348348     15.494407     15.494407     30.988814
     -3.338338     18.078055     18.078055     36.156110
     -3.328328     21.733320     21.733320     43.466641
     -3.318318     26.191915     26.191915     52.383831
     -3.308308     30.932087     30.932087     61.864175
     -3.298298     35.235471     35.235471     70.470942
     -3.288288     38.300800     38.300800     76.601601
     -3.278278     39.422136     39.422136     78.844272
     -3.268268     38.196164     38.196164     76.392327
     -3.258258     34.676644     34.676644     69.353288
     -3.248248     29.390974     29.390974     58.781947
     -3.238238     23.191699     23.191699     46.383399
     -3.228228     17.001234     17.001234     34.002468
     -3.218218     11.561922     11.561922     23.123844
     -3.208208      7.290751      7.290751     14.581502
     -3.198198      4.273531      4.273531      8.547062
     -3.188188      2.364814      2.364814      4.729628
     -3.178178      1.326832      1.326832      2.653664
     -3.168168      0.949754      0.949754      1.899508
     -3.158158      1.125493      1.125493      2.250986
     -3.148148      1.872866      1.872866      3.745733
     -3.138138      3.321648      3.321648      6.643297
     -3.128128      5.661571      5.661571     11.323142
     -3.118118      9.061607      9.061607     18.123213
     -3.108108     13.572886     13.572886     27.145773
     -3.098098     19.043104     19.043104     38.086208
     -3.088088     25.079640     25.079640     50.159280
     -3.078078     31.089984     31.089984     62.179968
     -3.068068     36.398351     36.398351     72.796702
     -3.058058     40.399859     40.399859     80.799719
     -3.048048     42.691926     42.691926     85.383853
     -3.038038     43.134295     43.134295     86.268591
     -3.028028     41.829789     41.829789     83.659579
     -3.018018     39.060631     39.060631     78.121262
     -3.008008     35.229804     35.229804     70.459607
     -2.997998     30.834265     30.834265     61.668530
     -2.987988     26.456809     26.456809     52.913619
     -2.977978     22.738676     22.738676     45.477353
     -2.967968     20.304186     20.304186     40.608373
     -2.957958     19.642854     19.642854     39.285707
     -2.947948     20.987190     20.987190     41.974381
     -2.937938     24.233932     24.233932     48.467864
     -2.927928     28.940113     28.940113     57.880226
     -2.917918     34.397269     34.397269     68.794538
     -2.907908     39.764011     39.764011     79.528022
     -2.897898     44.226830     44.226830     88.453660
     -2.887888     47.157585     47.157585     94.315169
     -2.877878     48.236152     48.236152     96.472304
     -2.867868     47.506789     47.506789     95.013579
     -2.857858     45.343982     45.343982     90.687964
     -2.847848     42.326010     42.326010     84.652021
     -2.837838     39.049680     39.049680     78.099360
     -2.827828     35.951130     35.951130     71.902261
     -2.817818     33.203807     33.203807     66.407614
     -2.807808     30.735046     30.735046     61.470092
     -2.797798     28.347963     28.347963     56.695927
     -2.787788     25.883507     25.883507     51.767014
     -2.777778     23.338103     23.338103     46.676206
     -2.767768     20.878146     20.878146     41.756292
     -2.757758     18.751092     18.751092     37.502185
     -2.747748     17.151795     17.151795     34.303591
     -2.737738     16.127619     16.127619     32.255239
     -2.727728     15.580661     15.580661     31.161322
     -2.717718     15.363643     15.363643     30.727285
     -2.707708     15.404917     15.404917     30.809834
     -2.697698     15.776766     15.776766     31.553532
     -2.687688     16.655481     16.655481     33.310961
     -2.677678     18.191924     18.191924     36.383848
     -2.667668     20.372934     20.372934     40.745868
     -2.657658     22.965732     22.965732     45.931465
     -2.647648     25.588795     25.588795     51.177590
     -2.637638     27.872730     27.872730     55.745460
     -2.627628     29.615911     29.615911     59.231822
     -2.617618     30.843006     30.843006     61.686013
     -2.607608     31.739078     31.739078     63.478156
     -2.597598     32.512073     32.512073     65.024146
     -2.587588     33.274277     33.274277     66.548553
     -2.577578     34.003899     34.003899     68.007798
     -2.567568     34.580714     34.580714     69.161428
     -2.557558     34.842746     34.842746     69.685491
     -2.547548     34.620224     34.620224     69.240447
     -2.537538     33.750702     33.750702     67.501404
     -2.527528     32.113031     32.113031     64.226061
     -2.517518     29.702003     29.702003     59.404006
     -2.507508     26.714302     26.714302     53.428604
     -2.497497     23.579469     23.579469     47.158937
     -2.487487     20.884818     20.884818     41.769635
     -2.477477     19.203587     19.203587     38.407174
     -2.467467     18.898169     18.898169     37.796338
     -2.457457     19.992707     19.992707     39.985414
     -2.447447     22.178974     22.178974     44.357948
     -2.437437     24.955335     24.955335     49.910669
     -2.427427     27.834610     27.834610     55.669220
     -2.417417     30.523285     30.523285     61.046571
     -2.407407     32.987143     32.987143     65.974286
     -2.397397     35.372438     35.372438     70.744876
     -2.387387     37.822839     37.822839     75.645678
     -2.377377     40.286610     40.286610     80.573221
     -2.367367     42.418298     42.418298     84.836595
     -2.357357     43.637666     43.637666     87.275333
     -2.347347     43.333768     43.333768     86.667535
     -2.337337     41.129011     41.129011     82.258022
     -2.327327     37.083973     37.083973     74.167947
     -2.317317     31.747972     31.747972     63.495945
     -2.307307     26.031936     26.031936     52.063871
     -2.297297     20.960087     20.960087     41.920173
     -2.287287     17.402295     17.402295     34.804590
     -2.277277     15.880612     15.880612     31.761225
     -2.267267     16.496743     16.496743     32.993486
     -2.257257     18.975080     18.975080     37.950161
     -2.247247     22.782949     22.782949     45.565897
     -2.237237     27.279253     27.279253     54.558505
     -2.227227     31.846279     31.846279     63.692557
     -2.217217     35.971400     35.971400     71.942800
     -2.207207     39.267065     39.267065     78.534130
     -2.197197     41.446762     41.446762     82.893524
     -2.187187     42.298318     42.298318     84.596636
     -2.177177     41.694953     41.694953     83.389905
     -2.167167     39.652051     39.652051     79.304103
     -2.157157     36.391481     36.391481     72.782962
     -2.147147     32.350298     32.350298     64.700597
     -2.137137     28.092442     28.092442     56.184884
     -2.127127     24.142354     24.142354     48.284707
     -2.117117     20.817628     20.817628     41.635255
     -2.107107     18.149519     18.149519     36.299038
     -2.097097     15.933356     15.933356     31.866712
     -2.087087     13.876341     13.876341     27.752682
     -2.077077     11.758411     11.758411     23.516823
     -2.067067      9.524842      9.524842     19.049685
     -2.057057      7.278984      7.278984     14.557968
     -2.047047      5.202128      5.202128     10.404255
     -2.037037      3.458105      3.458105      6.916210
     -2.027027      2.131597      2.131597      4.263194
     -2.017017      1.217267      1.217267      2.434535
     -2.007007      0.647014      0.647014      1.294028
     -1.996997      0.330576      0.330576      0.661152
     -1.986987      0.189969      0.189969      0.379939
     -1.976977      0.180469      0.180469      0.360938
     -1.966967      0.300153      0.300153      0.600306
     -1.956957      0.592157      0.592157      1.184315
     -1.946947      1.140419      1.140419      2.280838
     -1.936937      2.055274      2.055274      4.110549
     -1.926927      3.444544      3.444544      6.889089
     -1.916917      5.371143      5.371143     10.742287
     -1.906907      7.808091      7.808091     15.616183
     -1.896897     10.609850     10.609850     21.219700
     -1.886887     13.517955     13.517955     27.035910
     -1.876877     16.206748     16.206748     32.413496
     -1.866867     18.357666     18.357666     36.715332
     -1.856857     19.738426     19.738426     39.476852
     -1.846847     20.262305     20.262305     40.524609
     -1.836837     20.009779     20.009779     40.019557
     -1.826827     19.203740     19.203740     38.407481
     -1.816817     18.139338     18.139338     36.278675
     -1.806807     17.084061     17.084061     34.168121
     -1.796797     16.182007     16.182007     32.364015
     -1.786787     15.405883     15.405883     30.811766
     -1.776777     14.586156     14.586156     29.172311
     -1.766767     13.509007     13.509007     27.018014
     -1.756757     12.035145     12.035145     24.070290
     -1.746747     10.178927     10.178927     20.357854
     -1.736737      8.112359      8.112359     16.224718
     -1.726727      6.104020      6.104020     12.208041
     -1.716717      4.436977      4.436977      8.873953
     -1.706707      3.351045      3.351045      6.702090
     -1.696697      3.027017      3.027017      6.054034
     -1.686687      3.595741      3.595741      7.191481
     -1.676677      5.136951      5.136951     10.273902
     -1.666667      7.642275      7.642275     15.284549
     -1.656657     10.948326     10.948326     21.896653
     -1.646647     14.680606     14.680606     29.361212
     -1.636637     18.263481     18.263481     36.526961
     -1.626627     21.030218     21.030218     42.060436
