# EIG2DOS: Utility for SIESTA to obtain the electronic density of states
#  E. Artacho, Apr 1999, A. Garcia, Apr 2012
#  Nick R. Papior, Feb 2017
# ------------------------------------------
# Eigenvalues calculated from a non-polarized calculation
# Eigenvalues read from siesta.EIG
# Kpoint weights read from siesta.KP
# Using smearing parameter:   0.0500
# Using 1000 points in the energy range
# Selected bands: 1 to: 2981
# Emin, Emax in file for selected band(s):    -27.1346541    218.3509080
# Nbands, Nspin, Nk   =   2981     1     1
# E_F                 =    -4.2520 eV --> (shifted to ZERO)
# Broadening          =     0.0500 eV
#
#        E            N(up)  (=)   N(down)         Ntot
     -5.000000     34.589043     34.589043     69.178087
     -4.989990     38.262933     38.262933     76.525866
     -4.979980     41.288241     41.288241     82.576481
     -4.969970     43.210750     43.210750     86.421501
     -4.959960     43.723288     43.723288     87.446577
     -4.949950     42.758000     42.758000     85.515999
     -4.939940     40.519822     40.519822     81.039644
     -4.929930     37.458979     37.458979     74.917958
     -4.919920     34.204798     34.204798     68.409596
     -4.909910     31.484240     31.484240     62.968479
     -4.899900     30.028048     30.028048     60.056096
     -4.889890     30.447055     30.447055     60.894110
     -4.879880     33.067973     33.067973     66.135947
     -4.869870     37.760035     37.760035     75.520071
     -4.859860     43.834799     43.834799     87.669599
     -4.849850     50.113904     50.113904    100.227808
     -4.839840     55.202504     55.202504    110.405007
     -4.829830     57.898489     57.898489    115.796978
     -4.819820     57.574895     57.574895    115.149790
     -4.809810     54.363339     54.363339    108.726679
     -4.799800     49.057273     49.057273     98.114547
     -4.789790     42.792971     42.792971     85.585943
     -4.779780     36.666841     36.666841     73.333682
     -4.769770     31.452083     31.452083     62.904167
     -4.759760     27.496939     27.496939     54.993877
     -4.749750     24.784470     24.784470     49.568939
     -4.739740     23.072832     23.072832     46.145664
     -4.729730     22.034385     22.034385     44.068770
     -4.719720     21.348556     21.348556     42.697112
     -4.709710     20.743325     20.743325     41.486651
     -4.699700     20.005298     20.005298     40.010595
     -4.689690     18.986430     18.986430     37.972860
     -4.679680     17.628695     17.628695     35.257390
     -4.669670     16.008808     16.008808     32.017616
     -4.659660     14.381820     14.381820     28.763640
     -4.649650     13.188746     13.188746     26.377492
     -4.639640     12.999489     12.999489     25.998978
     -4.629630     14.385660     14.385660     28.771320
     -4.619620     17.747269     17.747269     35.494537
     -4.609610     23.142107     23.142107     46.284214
     -4.599600     30.180521     30.180521     60.361042
     -4.589590     38.043647     38.043647     76.087295
     -4.579580     45.651437     45.651437     91.302873
     -4.569570     51.948650     51.948650    103.897301
     -4.559560     56.214494     56.214494    112.428988
     -4.549550     58.271917     58.271917    116.543834
     -4.539540     58.503158     58.503158    117.006316
     -4.529530     57.661278     57.661278    115.322556
     -4.519520     56.560226     56.560226    113.120452
     -4.509510     55.776974     55.776974    111.553947
     -4.499499     55.482598     55.482598    110.965196
     -4.489489     55.449750     55.449750    110.899499
     -4.479479     55.203654     55.203654    110.407309
     -4.469469     54.233304     54.233304    108.466607
     -4.459459     52.175313     52.175313    104.350625
     -4.449449     48.915166     48.915166     97.830331
     -4.439439     44.595770     44.595770     89.191540
     -4.429429     39.559684     39.559684     79.119367
     -4.419419     34.266596     34.266596     68.533191
     -4.409409     29.219295     29.219295     58.438590
     -4.399399     24.907543     24.907543     49.815087
     -4.389389     21.756769     21.756769     43.513538
     -4.379379     20.064816     20.064816     40.129632
     -4.369369     19.929725     19.929725     39.859451
     -4.359359     21.199415     21.199415     42.398830
     -4.349349     23.484780     23.484780     46.969560
     -4.339339     26.256288     26.256288     52.512575
     -4.329329     29.000506     29.000506     58.001012
     -4.319319     31.375900     31.375900     62.751799
     -4.309309     33.301919     33.301919     66.603838
     -4.299299     34.944883     34.944883     69.889765
     -4.289289     36.608466     36.608466     73.216932
     -4.279279     38.571094     38.571094     77.142187
     -4.269269     40.926442     40.926442     81.852883
     -4.259259     43.481762     43.481762     86.963523
     -4.249249     45.758398     45.758398     91.516796
     -4.239239     47.115478     47.115478     94.230955
     -4.229229     46.973700     46.973700     93.947399
     -4.219219     45.060616     45.060616     90.121232
     -4.209209     41.565294     41.565294     83.130588
     -4.199199     37.114311     37.114311     74.228623
     -4.189189     32.564263     32.564263     65.128526
     -4.179179     28.703368     28.703368     57.406736
     -4.169169     26.003687     26.003687     52.007374
     -4.159159     24.533939     24.533939     49.067878
     -4.149149     24.053576     24.053576     48.107152
     -4.139139     24.218360     24.218360     48.436720
     -4.129129     24.783802     24.783802     49.567603
     -4.119119     25.707408     25.707408     51.414817
     -4.109109     27.106028     27.106028     54.212056
     -4.099099     29.094267     29.094267     58.188535
     -4.089089     31.590102     31.590102     63.180205
     -4.079079     34.200628     34.200628     68.401255
     -4.069069     36.273615     36.273615     72.547231
     -4.059059     37.119045     37.119045     74.238089
     -4.049049     36.305539     36.305539     72.611078
     -4.039039     33.880831     33.880831     67.761661
     -4.029029     30.396412     30.396412     60.792824
     -4.019019     26.721798     26.721798     53.443596
     -4.009009     23.747343     23.747343     47.494686
     -3.998999     22.123869     22.123869     44.247738
     -3.988989     22.146191     22.146191     44.292381
     -3.978979     23.791919     23.791919     47.583838
     -3.968969     26.844550     26.844550     53.689100
     -3.958959     31.009943     31.009943     62.019886
     -3.948949     35.977171     35.977171     71.954343
     -3.938939     41.434839     41.434839     82.869678
     -3.928929     47.083426     47.083426     94.166851
     -3.918919     52.666158     52.666158    105.332315
     -3.908909     57.999847     57.999847    115.999693
     -3.898899     62.964959     62.964959    125.929917
     -3.888889     67.433974     67.433974    134.867948
     -3.878879     71.165723     71.165723    142.331446
     -3.868869     73.733810     73.733810    147.467621
     -3.858859     74.557373     74.557373    149.114746
     -3.848849     73.056557     73.056557    146.113115
     -3.838839     68.886545     68.886545    137.773091
     -3.828829     62.150749     62.150749    124.301498
     -3.818819     53.488045     53.488045    106.976089
     -3.808809     43.977804     43.977804     87.955608
     -3.798799     34.886278     34.886278     69.772555
     -3.788789     27.346285     27.346285     54.692571
     -3.778779     22.084594     22.084594     44.169188
     -3.768769     19.282091     19.282091     38.564181
     -3.758759     18.594073     18.594073     37.188146
     -3.748749     19.303954     19.303954     38.607908
     -3.738739     20.553172     20.553172     41.106344
     -3.728729     21.583649     21.583649     43.167297
     -3.718719     21.936577     21.936577     43.873153
     -3.708709     21.564047     21.564047     43.128093
     -3.698699     20.826056     20.826056     41.652111
     -3.688689     20.367453     20.367453     40.734905
     -3.678679     20.898973     20.898973     41.797945
     -3.668669     22.939634     22.939634     45.879268
     -3.658659     26.602481     26.602481     53.204962
     -3.648649     31.505327     31.505327     63.010653
     -3.638639     36.851312     36.851312     73.702624
     -3.628629     41.657720     41.657720     83.315439
     -3.618619     45.045470     45.045470     90.090941
     -3.608609     46.474897     46.474897     92.949793
     -3.598599     45.845081     45.845081     91.690162
     -3.588589     43.445115     43.445115     86.890230
     -3.578579     39.809786     39.809786     79.619572
     -3.568569     35.552424     35.552424     71.104848
     -3.558559     31.224974     31.224974     62.449948
     -3.548549     27.222150     27.222150     54.444300
     -3.538539     23.731996     23.731996     47.463992
     -3.528529     20.739054     20.739054     41.478108
     -3.518519     18.086128     18.086128     36.172257
     -3.508509     15.581564     15.581564     31.163128
     -3.498498     13.112130     13.112130     26.224261
     -3.488488     10.712257     10.712257     21.424514
     -3.478478      8.560703      8.560703     17.121405
     -3.468468      6.912290      6.912290     13.824579
     -3.458458      5.999581      5.999581     11.999161
     -3.448448      5.943379      5.943379     11.886758
     -3.438438      6.698454      6.698454     13.396907
     -3.428428      8.047382      8.047382     16.094765
     -3.418418      9.647400      9.647400     19.294800
     -3.408408     11.126154     11.126154     22.252309
     -3.398398     12.204944     12.204944     24.409887
     -3.388388     12.807727     12.807727     25.615453
     -3.378378     13.107929     13.107929     26.215858
     -3.368368     13.485322     13.485322     26.970643
     -3.358358     14.404905     14.404905     28.809810
     -3.348348     16.264219     16.264219     32.528438
     -3.338338     19.262325     19.262325     38.524650
     -3.328328     23.322353     23.322353     46.644707
     -3.318318     28.072006     28.072006     56.144013
     -3.308308     32.876675     32.876675     65.753350
     -3.298298     36.929424     36.929424     73.858848
     -3.288288     39.407325     39.407325     78.814650
     -3.278278     39.680428     39.680428     79.360855
     -3.268268     37.514017     37.514017     75.028035
     -3.258258     33.175311     33.175311     66.350623
     -3.248248     27.380028     27.380028     54.760057
     -3.238238     21.089029     21.089029     42.178059
     -3.228228     15.242342     15.242342     30.484683
     -3.218218     10.543086     10.543086     21.086172
     -3.208208      7.362473      7.362473     14.724947
     -3.198198      5.763771      5.763771     11.527542
     -3.188188      5.590075      5.590075     11.180150
     -3.178178      6.556614      6.556614     13.113228
     -3.168168      8.321855      8.321855     16.643710
     -3.158158     10.547611     10.547611     21.095222
     -3.148148     12.966546     12.966546     25.933092
     -3.138138     15.452551     15.452551     30.905102
     -3.128128     18.058845     18.058845     36.117691
     -3.118118     20.981967     20.981967     41.963934
     -3.108108     24.441239     24.441239     48.882478
     -3.098098     28.516275     28.516275     57.032550
     -3.088088     33.022291     33.022291     66.044582
     -3.078078     37.494220     37.494220     74.988439
     -3.068068     41.296826     41.296826     82.593652
     -3.058058     43.811923     43.811923     87.623846
     -3.048048     44.616739     44.616739     89.233479
     -3.038038     43.580540     43.580540     87.161080
     -3.028028     40.857425     40.857425     81.714851
     -3.018018     36.806955     36.806955     73.613910
     -3.008008     31.898889     31.898889     63.797777
     -2.997998     26.645283     26.645283     53.290567
     -2.987988     21.569371     21.569371     43.138742
     -2.977978     17.192321     17.192321     34.384642
     -2.967968     14.011630     14.011630     28.023260
     -2.957958     12.455652     12.455652     24.911304
     -2.947948     12.814936     12.814936     25.629872
     -2.937938     15.163750     15.163750     30.327499
     -2.927928     19.294235     19.294235     38.588470
     -2.917918     24.692577     24.692577     49.385155
     -2.907908     30.586622     30.586622     61.173244
     -2.897898     36.078588     36.078588     72.157176
     -2.887888     40.342910     40.342910     80.685820
     -2.877878     42.830911     42.830911     85.661822
     -2.867868     43.404582     43.404582     86.809163
     -2.857858     42.339162     42.339162     84.678325
     -2.847848     40.186451     40.186451     80.372903
     -2.837838     37.553676     37.553676     75.107351
     -2.827828     34.893089     34.893089     69.786178
     -2.817818     32.391908     32.391908     64.783815
     -2.807808     30.001559     30.001559     60.003118
     -2.797798     27.575196     27.575196     55.150393
     -2.787788     25.030026     25.030026     50.060051
     -2.777778     22.444438     22.444438     44.888876
     -2.767768     20.042401     20.042401     40.084802
     -2.757758     18.084891     18.084891     36.169782
     -2.747748     16.741650     16.741650     33.483301
     -2.737738     16.024804     16.024804     32.049607
     -2.727728     15.823424     15.823424     31.646848
     -2.717718     16.010660     16.010660     32.021320
     -2.707708     16.545529     16.545529     33.091059
     -2.697698     17.493873     17.493873     34.987746
     -2.687688     18.948523     18.948523     37.897046
     -2.677678     20.901975     20.901975     41.803949
     -2.667668     23.164998     23.164998     46.329996
     -2.657658     25.400278     25.400278     50.800555
     -2.647648     27.264046     27.264046     54.528092
     -2.637638     28.572030     28.572030     57.144061
     -2.627628     29.384253     29.384253     58.768507
     -2.617618     29.954262     29.954262     59.908523
     -2.607608     30.576807     30.576807     61.153615
     -2.597598     31.429824     31.429824     62.859649
     -2.587588     32.498457     32.498457     64.996914
     -2.577578     33.602661     33.602661     67.205322
     -2.567568     34.481625     34.481625     68.963250
     -2.557558     34.870313     34.870313     69.740626
     -2.547548     34.540819     34.540819     69.081638
     -2.537538     33.330725     33.330725     66.661449
     -2.527528     31.193150     31.193150     62.386299
     -2.517518     28.268560     28.268560     56.537120
     -2.507508     24.932341     24.932341     49.864681
     -2.497497     21.760695     21.760695     43.521389
     -2.487487     19.395444     19.395444     38.790887
     -2.477477     18.349297     18.349297     36.698594
     -2.467467     18.834729     18.834729     37.669459
     -2.457457     20.696014     20.696014     41.392027
     -2.447447     23.478996     23.478996     46.957992
     -2.437437     26.611166     26.611166     53.222333
     -2.427427     29.614268     29.614268     59.228537
     -2.417417     32.255360     32.255360     64.510720
     -2.407407     34.568370     34.568370     69.136739
     -2.397397     36.737292     36.737292     73.474584
     -2.387387     38.898442     38.898442     77.796884
     -2.377377     40.961444     40.961444     81.922888
     -2.367367     42.545241     42.545241     85.090482
     -2.357357     43.074918     43.074918     86.149835
     -2.347347     42.008176     42.008176     84.016352
     -2.337337     39.092954     39.092954     78.185909
     -2.327327     34.536127     34.536127     69.072255
     -2.317317     29.002821     29.002821     58.005642
     -2.307307     23.446906     23.446906     46.893813
     -2.297297     18.849662     18.849662     37.699324
     -2.287287     15.973234     15.973234     31.946467
     -2.277277     15.209369     15.209369     30.418739
     -2.267267     16.548374     16.548374     33.096748
     -2.257257     19.645135     19.645135     39.290270
     -2.247247     23.937991     23.937991     47.875983
     -2.237237     28.778071     28.778071     57.556143
     -2.227227     33.537827     33.537827     67.075653
     -2.217217     37.680392     37.680392     75.360784
     -2.207207     40.787000     40.787000     81.574000
     -2.197197     42.557745     42.557745     85.115489
     -2.187187     42.813139     42.813139     85.626277
     -2.177177     41.517930     41.517930     83.035860
     -2.167167     38.822060     38.822060     77.644120
     -2.157157     35.082484     35.082484     70.164968
     -2.147147     30.820803     30.820803     61.641607
     -2.137137     26.601036     26.601036     53.202072
     -2.127127     22.865528     22.865528     45.731057
     -2.117117     19.806563     19.806563     39.613126
     -2.107107     17.342924     17.342924     34.685849
     -2.097097     15.214702     15.214702     30.429404
     -2.087087     13.142805     13.142805     26.285609
     -2.077077     10.967430     10.967430     21.934860
     -2.067067      8.701278      8.701278     17.402557
     -2.057057      6.489124      6.489124     12.978249
     -2.047047      4.515637      4.515637      9.031275
     -2.037037      2.919045      2.919045      5.838090
     -2.027027      1.748650      1.748650      3.497300
     -2.017017      0.970784      0.970784      1.941568
     -2.007007      0.503775      0.503775      1.007550
     -1.996997      0.257634      0.257634      0.515267
     -1.986987      0.163349      0.163349      0.326698
     -1.976977      0.188764      0.188764      0.377528
     -1.966967      0.344929      0.344929      0.689858
     -1.956957      0.686642      0.686642      1.373284
     -1.946947      1.306531      1.306531      2.613062
     -1.936937      2.318103      2.318103      4.636206
     -1.926927      3.823962      3.823962      7.647924
     -1.916917      5.872345      5.872345     11.744690
     -1.906907      8.415483      8.415483     16.830966
     -1.896897     11.290072     11.290072     22.580144
     -1.886887     14.236531     14.236531     28.473062
     -1.876877     16.958869     16.958869     33.917737
     -1.866867     19.208169     19.208169     38.416338
     -1.856857     20.860149     20.860149     41.720299
     -1.846847     21.956446     21.956446     43.912893
     -1.836837     22.688542     22.688542     45.377083
     -1.826827     23.319383     23.319383     46.638767
     -1.816817     24.060338     24.060338     48.120677
     -1.806807     24.947435     24.947435     49.894869
     -1.796797     25.777692     25.777692     51.555384
     -1.786787     26.153735     26.153735     52.307471
     -1.776777     25.635934     25.635934     51.271869
     -1.766767     23.938644     23.938644     47.877288
     -1.756757     21.073359     21.073359     42.146719
     -1.746747     17.365604     17.365604     34.731208
     -1.736737     13.342003     13.342003     26.684006
     -1.726727      9.552944      9.552944     19.105888
     -1.716717      6.420473      6.420473     12.840946
     -1.706707      4.171359      4.171359      8.342718
     -1.696697      2.858844      2.858844      5.717688
     -1.686687      2.431454      2.431454      4.862907
     -1.676677      2.795345      2.795345      5.590690
     -1.666667      3.835852      3.835852      7.671704
     -1.656657      5.397401      5.397401     10.794802
     -1.646647      7.250071      7.250071     14.500141
     -1.636637      9.082218      9.082218     18.164437
     -1.626627     10.546279     10.546279     21.092558
