# EIG2DOS: Utility for SIESTA to obtain the electronic density of states
#  E. Artacho, Apr 1999, A. Garcia, Apr 2012
#  Nick R. Papior, Feb 2017
# ------------------------------------------
# Eigenvalues calculated from a non-polarized calculation
# Eigenvalues read from siesta.EIG
# Kpoint weights read from siesta.KP
# Using smearing parameter:   0.0500
# Using 1000 points in the energy range
# Selected bands: 1 to: 2981
# Emin, Emax in file for selected band(s):    -27.0477809    218.3208450
# Nbands, Nspin, Nk   =   2981     1     1
# E_F                 =    -4.2854 eV --> (shifted to ZERO)
# Broadening          =     0.0500 eV
#
#        E            N(up)  (=)   N(down)         Ntot
     -5.000000     46.067215     46.067215     92.134430
     -4.989990     49.834173     49.834173     99.668346
     -4.979980     51.920181     51.920181    103.840362
     -4.969970     52.115419     52.115419    104.230838
     -4.959960     50.514163     50.514163    101.028327
     -4.949950     47.471282     47.471282     94.942564
     -4.939940     43.508073     43.508073     87.016146
     -4.929930     39.219983     39.219983     78.439966
     -4.919920     35.222634     35.222634     70.445268
     -4.909910     32.134079     32.134079     64.268158
     -4.899900     30.554305     30.554305     61.108610
     -4.889890     30.991113     30.991113     61.982226
     -4.879880     33.709166     33.709166     67.418331
     -4.869870     38.540899     38.540899     77.081799
     -4.859860     44.760856     44.760856     89.521712
     -4.849850     51.138887     51.138887    102.277774
     -4.839840     56.221432     56.221432    112.442864
     -4.829830     58.766311     58.766311    117.532622
     -4.819820     58.150205     58.150205    116.300410
     -4.809810     54.557438     54.557438    109.114876
     -4.799800     48.863024     48.863024     97.726048
     -4.789790     42.279878     42.279878     84.559755
     -4.779780     35.949086     35.949086     71.898172
     -4.769770     30.649775     30.649775     61.299549
     -4.759760     26.709203     26.709203     53.418406
     -4.749750     24.080639     24.080639     48.161278
     -4.739740     22.495912     22.495912     44.991824
     -4.729730     21.607323     21.607323     43.214646
     -4.719720     21.077940     21.077940     42.155880
     -4.709710     20.620743     20.620743     41.241486
     -4.699700     20.008496     20.008496     40.016992
     -4.689690     19.080491     19.080491     38.160983
     -4.679680     17.765492     17.765492     35.530984
     -4.669670     16.124168     16.124168     32.248337
     -4.659660     14.393783     14.393783     28.787565
     -4.649650     13.003719     13.003719     26.007437
     -4.639640     12.532284     12.532284     25.064569
     -4.629630     13.592550     13.592550     27.185101
     -4.619620     16.659784     16.659784     33.319568
     -4.609610     21.878777     21.878777     43.757553
     -4.599600     28.912636     28.912636     57.825273
     -4.589590     36.906612     36.906612     73.813223
     -4.579580     44.623740     44.623740     89.247480
     -4.569570     50.751574     50.751574    101.503148
     -4.559560     54.295810     54.295810    108.591620
     -4.549550     54.912179     54.912179    109.824358
     -4.539540     53.029927     53.029927    106.059855
     -4.529530     49.700805     49.700805     99.401611
     -4.519520     46.228487     46.228487     92.456974
     -4.509510     43.729571     43.729571     87.459143
     -4.499499     42.799017     42.799017     85.598034
     -4.489489     43.394775     43.394775     86.789549
     -4.479479     44.955240     44.955240     89.910479
     -4.469469     46.670954     46.670954     93.341908
     -4.459459     47.787082     47.787082     95.574163
     -4.449449     47.825074     47.825074     95.650148
     -4.439439     46.664520     46.664520     93.329040
     -4.429429     44.491169     44.491169     88.982338
     -4.419419     41.667172     41.667172     83.334344
     -4.409409     38.596635     38.596635     77.193269
     -4.399399     35.639826     35.639826     71.279652
     -4.389389     33.086373     33.086373     66.172745
     -4.379379     31.158420     31.158420     62.316840
     -4.369369     30.004616     30.004616     60.009231
     -4.359359     29.670081     29.670081     59.340163
     -4.349349     30.064812     30.064812     60.129625
     -4.339339     30.970498     30.970498     61.940997
     -4.329329     32.106817     32.106817     64.213635
     -4.319319     33.236851     33.236851     66.473702
     -4.309309     34.260277     34.260277     68.520554
     -4.299299     35.245590     35.245590     70.491180
     -4.289289     36.384003     36.384003     72.768006
     -4.279279     37.883409     37.883409     75.766818
     -4.269269     39.841336     39.841336     79.682671
     -4.259259     42.140822     42.140822     84.281645
     -4.249249     44.411647     44.411647     88.823294
     -4.239239     46.090851     46.090851     92.181702
     -4.229229     46.588391     46.588391     93.176782
     -4.219219     45.512148     45.512148     91.024295
     -4.209209     42.856000     42.856000     85.712001
     -4.199199     39.048098     39.048098     78.096196
     -4.189189     34.816190     34.816190     69.632379
     -4.179179     30.925306     30.925306     61.850612
     -4.169169     27.916257     27.916257     55.832514
     -4.159159     25.970999     25.970999     51.941998
     -4.149149     24.956070     24.956070     49.912141
     -4.139139     24.598916     24.598916     49.197831
     -4.129129     24.690429     24.690429     49.380858
     -4.119119     25.205522     25.205522     50.411045
     -4.109109     26.281771     26.281771     52.563542
     -4.099099     28.068099     28.068099     56.136199
     -4.089089     30.523519     30.523519     61.047038
     -4.079079     33.282615     33.282615     66.565230
     -4.069069     35.685106     35.685106     71.370212
     -4.059059     36.987256     36.987256     73.974513
     -4.049049     36.667710     36.667710     73.335420
     -4.039039     34.673310     34.673310     69.346619
     -4.029029     31.472351     31.472351     62.944702
     -4.019019     27.887388     27.887388     55.774776
     -4.009009     24.801297     24.801297     49.602594
     -3.998999     22.889451     22.889451     45.778901
     -3.988989     22.493537     22.493537     44.987073
     -3.978979     23.653004     23.653004     47.306008
     -3.968969     26.221244     26.221244     52.442489
     -3.958959     29.971337     29.971337     59.942675
     -3.948949     34.641776     34.641776     69.283551
     -3.938939     39.938902     39.938902     79.877804
     -3.928929     45.545280     45.545280     91.090560
     -3.918919     51.161961     51.161961    102.323922
     -3.908909     56.563463     56.563463    113.126926
     -3.898899     61.613575     61.613575    123.227150
     -3.888889     66.206427     66.206427    132.412853
     -3.878879     70.150781     70.150781    140.301562
     -3.868869     73.068037     73.068037    146.136074
     -3.858859     74.387331     74.387331    148.774663
     -3.848849     73.480312     73.480312    146.960623
     -3.838839     69.902479     69.902479    139.804957
     -3.828829     63.639324     63.639324    127.278648
     -3.818819     55.235745     55.235745    110.471490
     -3.808809     45.732388     45.732388     91.464776
     -3.798799     36.420134     36.420134     72.840267
     -3.788789     28.505301     28.505301     57.010602
     -3.778779     22.810230     22.810230     45.620461
     -3.768769     19.606582     19.606582     39.213164
     -3.758759     18.616587     18.616587     37.233175
     -3.748749     19.157501     19.157501     38.315001
     -3.738739     20.370303     20.370303     40.740606
     -3.728729     21.466615     21.466615     42.933229
     -3.718719     21.936264     21.936264     43.872529
     -3.708709     21.671336     21.671336     43.342673
     -3.698699     20.978017     20.978017     41.956033
     -3.688689     20.468084     20.468084     40.936167
     -3.678679     20.850191     20.850191     41.700383
     -3.668669     22.674204     22.674204     45.348407
     -3.658659     26.108542     26.108542     52.217085
     -3.648649     30.833934     30.833934     61.667869
     -3.638639     36.104151     36.104151     72.208303
     -3.628629     40.959926     40.959926     81.919851
     -3.618619     44.514228     44.514228     89.028457
     -3.608609     46.194870     46.194870     92.389741
     -3.598599     45.856583     45.856583     91.713165
     -3.588589     43.744077     43.744077     87.488154
     -3.578579     40.354734     40.354734     80.709467
     -3.568569     36.274459     36.274459     72.548917
     -3.558559     32.039733     32.039733     64.079466
     -3.548549     28.043940     28.043940     56.087880
     -3.538539     24.488552     24.488552     48.977104
     -3.528529     21.382902     21.382902     42.765803
     -3.518519     18.598471     18.598471     37.196941
     -3.508509     15.967712     15.967712     31.935424
     -3.498498     13.391478     13.391478     26.782956
     -3.488488     10.907798     10.907798     21.815595
     -3.478478      8.692051      8.692051     17.384102
     -3.468468      6.993401      6.993401     13.986802
     -3.458458      6.039936      6.039936     12.079872
     -3.448448      5.950473      5.950473     11.900945
     -3.438438      6.679736      6.679736     13.359473
     -3.428428      8.010628      8.010628     16.021255
     -3.418418      9.599210      9.599210     19.198419
     -3.408408     11.069058     11.069058     22.138116
     -3.398398     12.134276     12.134276     24.268553
     -3.388388     12.709948     12.709948     25.419896
     -3.378378     12.961757     12.961757     25.923513
     -3.368368     13.265903     13.265903     26.531805
     -3.358358     14.089873     14.089873     28.179745
     -3.348348     15.839948     15.839948     31.679895
     -3.338338     18.729489     18.729489     37.458978
     -3.328328     22.701086     22.701086     45.402173
     -3.318318     27.406757     27.406757     54.813514
     -3.308308     32.238463     32.238463     64.476926
     -3.298298     36.410471     36.410471     72.820942
     -3.288288     39.103670     39.103670     78.207340
     -3.278278     39.663971     39.663971     79.327942
     -3.268268     37.803396     37.803396     75.606791
     -3.258258     33.718458     33.718458     67.436916
     -3.248248     28.055676     28.055676     56.111353
     -3.238238     21.722468     21.722468     43.444936
     -3.228228     15.621248     15.621248     31.242496
     -3.218218     10.420475     10.420475     20.840950
     -3.208208      6.446664      6.446664     12.893329
     -3.198198      3.711976      3.711976      7.423953
     -3.188188      2.031047      2.031047      4.062095
     -3.178178      1.159935      1.159935      2.319870
     -3.168168      0.907271      0.907271      1.814542
     -3.158158      1.198635      1.198635      2.397270
     -3.148148      2.096575      2.096575      4.193151
     -3.138138      3.782922      3.782922      7.565845
     -3.128128      6.504405      6.504405     13.008810
     -3.118118     10.480309     10.480309     20.960617
     -3.108108     15.781236     15.781236     31.562472
     -3.098098     22.209769     22.209769     44.419539
     -3.088088     29.234437     29.234437     58.468873
     -3.078078     36.029124     36.029124     72.058248
     -3.068068     41.638310     41.638310     83.276620
     -3.058058     45.230604     45.230604     90.461207
     -3.048048     46.348133     46.348133     92.696267
     -3.038038     45.044824     45.044824     90.089648
     -3.028028     41.850782     41.850782     83.701563
     -3.018018     37.582610     37.582610     75.165219
     -3.008008     33.090785     33.090785     66.181570
     -2.997998     29.052265     29.052265     58.104530
     -2.987988     25.875531     25.875531     51.751061
     -2.977978     23.721182     23.721182     47.442365
     -2.967968     22.594517     22.594517     45.189034
     -2.957958     22.452616     22.452616     44.905232
     -2.947948     23.276992     23.276992     46.553983
     -2.937938     25.080683     25.080683     50.161366
     -2.927928     27.844768     27.844768     55.689536
     -2.917918     31.414873     31.414873     62.829747
     -2.907908     35.420536     35.420536     70.841073
     -2.897898     39.283789     39.283789     78.567578
     -2.887888     42.343827     42.343827     84.687653
     -2.877878     44.058294     44.058294     88.116589
     -2.867868     44.189259     44.189259     88.378518
     -2.857858     42.879289     42.879289     85.758578
     -2.847848     40.575265     40.575265     81.150531
     -2.837838     37.834990     37.834990     75.669980
     -2.827828     35.110402     35.110402     70.220804
     -2.817818     32.609462     32.609462     65.218923
     -2.807808     30.293968     30.293968     60.587937
     -2.797798     27.998316     27.998316     55.996632
     -2.787788     25.593479     25.593479     51.186957
     -2.777778     23.102928     23.102928     46.205855
     -2.767768     20.710794     20.710794     41.421587
     -2.757758     18.667794     18.667794     37.335589
     -2.747748     17.160050     17.160050     34.320101
     -2.737738     16.225303     16.225303     32.450606
     -2.727728     15.768298     15.768298     31.536596
     -2.717718     15.661505     15.661505     31.323009
     -2.707708     15.859872     15.859872     31.719743
     -2.697698     16.446911     16.446911     32.893821
     -2.687688     17.573842     17.573842     35.147684
     -2.677678     19.326705     19.326705     38.653410
     -2.667668     21.609921     21.609921     43.219842
     -2.657658     24.130693     24.130693     48.261387
     -2.647648     26.505986     26.505986     53.011971
     -2.637638     28.432489     28.432489     56.864977
     -2.627628     29.815830     29.815830     59.631661
     -2.617618     30.780859     30.780859     61.561719
     -2.607608     31.563510     31.563510     63.127021
     -2.597598     32.359896     32.359896     64.719791
     -2.587588     33.225518     33.225518     66.451036
     -2.577578     34.068421     34.068421     68.136843
     -2.567568     34.709142     34.709142     69.418284
     -2.557558     34.946331     34.946331     69.892663
     -2.547548     34.591749     34.591749     69.183497
     -2.537538     33.489432     33.489432     66.978865
     -2.527528     31.557514     31.557514     63.115027
     -2.517518     28.863663     28.863663     57.727326
     -2.507508     25.694079     25.694079     51.388157
     -2.497497     22.551708     22.551708     45.103416
     -2.487487     20.048454     20.048454     40.096908
     -2.477477     18.719378     18.719378     37.438756
     -2.467467     18.839241     18.839241     37.678481
     -2.457457     20.328920     20.328920     40.657839
     -2.447447     22.798802     22.798802     45.597605
     -2.437437     25.712061     25.712061     51.424122
     -2.427427     28.594897     28.594897     57.189795
     -2.417417     31.198513     31.198513     62.397026
     -2.407407     33.538652     33.538652     67.077304
     -2.397397     35.794649     35.794649     71.589298
     -2.387387     38.116725     38.116725     76.233451
     -2.377377     40.437358     40.437358     80.874716
     -2.367367     42.386816     42.386816     84.773632
     -2.357357     43.369408     43.369408     86.738817
     -2.347347     42.781941     42.781941     85.563882
     -2.337337     40.283203     40.283203     80.566406
     -2.327327     35.991076     35.991076     71.982153
     -2.317317     30.513536     30.513536     61.027072
     -2.307307     24.798421     24.798421     49.596842
     -2.297297     19.870346     19.870346     39.740692
     -2.287287     16.564448     16.564448     33.128897
     -2.277277     15.349047     15.349047     30.698095
     -2.267267     16.274424     16.274424     32.548848
     -2.257257     19.031205     19.031205     38.062410
     -2.247247     23.073641     23.073641     46.147282
     -2.237237     27.759911     27.759911     55.519821
     -2.227227     32.470805     32.470805     64.941611
     -2.217217     36.682006     36.682006     73.364012
     -2.207207     39.984532     39.984532     79.969063
     -2.197197     42.071811     42.071811     84.143623
     -2.187187     42.729147     42.729147     85.458294
     -2.177177     41.856370     41.856370     83.712741
     -2.167167     39.523136     39.523136     79.046273
     -2.157157     36.016604     36.016604     72.033207
     -2.147147     31.825050     31.825050     63.650099
     -2.137137     27.528638     27.528638     55.057276
     -2.127127     23.627820     23.627820     47.255639
     -2.117117     20.389740     20.389740     40.779480
     -2.107107     17.794069     17.794069     35.588138
     -2.097097     15.606461     15.606461     31.212921
     -2.087087     13.535396     13.535396     27.070793
     -2.077077     11.385349     11.385349     22.770698
     -2.067067      9.131877      9.131877     18.263754
     -2.057057      6.898144      6.898144     13.796289
     -2.047047      4.867856      4.867856      9.735712
     -2.037037      3.193154      3.193154      6.386309
     -2.027027      1.941731      1.941731      3.883463
     -2.017017      1.094202      1.094202      2.188404
     -2.007007      0.575503      0.575503      1.151007
     -1.996997      0.295484      0.295484      0.590968
     -1.986987      0.181156      0.181156      0.362311
     -1.976977      0.195366      0.195366      0.390732
     -1.966967      0.344735      0.344735      0.689471
     -1.956957      0.680599      0.680599      1.361198
     -1.946947      1.292800      1.292800      2.585599
     -1.936937      2.292264      2.292264      4.584527
     -1.926927      3.778838      3.778838      7.557676
     -1.916917      5.797590      5.797590     11.595179
     -1.906907      8.296767      8.296767     16.593534
     -1.896897     11.106942     11.106942     22.213885
     -1.886887     13.956818     13.956818     27.913636
     -1.876877     16.526628     16.526628     33.053257
     -1.866867     18.523155     18.523155     37.046309
     -1.856857     19.751592     19.751592     39.503185
     -1.846847     20.162445     20.162445     40.324889
     -1.836837     19.860662     19.860662     39.721325
     -1.826827     19.072529     19.072529     38.145057
     -1.816817     18.073719     18.073719     36.147438
     -1.806807     17.095049     17.095049     34.190098
     -1.796797     16.239277     16.239277     32.478554
     -1.786787     15.449463     15.449463     30.898926
     -1.776777     14.552392     14.552392     29.104784
     -1.766767     13.362264     13.362264     26.724529
     -1.756757     11.794141     11.794141     23.588282
     -1.746747      9.930255      9.930255     19.860509
     -1.736737      8.010856      8.010856     16.021712
     -1.726727      6.363645      6.363645     12.727290
     -1.716717      5.312139      5.312139     10.624278
     -1.706707      5.099840      5.099840     10.199680
     -1.696697      5.844441      5.844441     11.688882
     -1.686687      7.516797      7.516797     15.033594
     -1.676677      9.936360      9.936360     19.872720
     -1.666667     12.783934     12.783934     25.567868
     -1.656657     15.639689     15.639689     31.279378
     -1.646647     18.050079     18.050079     36.100158
     -1.636637     19.614496     19.614496     39.228993
     -1.626627     20.071415     20.071415     40.142830
