# EIG2DOS: Utility for SIESTA to obtain the electronic density of states
#  E. Artacho, Apr 1999, A. Garcia, Apr 2012
#  Nick R. Papior, Feb 2017
# ------------------------------------------
# Eigenvalues calculated from a non-polarized calculation
# Eigenvalues read from siesta.EIG
# Kpoint weights read from siesta.KP
# Using smearing parameter:   0.0500
# Using 1000 points in the energy range
# Selected bands: 1 to: 2981
# Emin, Emax in file for selected band(s):    -27.3263826    218.3904050
# Nbands, Nspin, Nk   =   2981     1     1
# E_F                 =    -4.2085 eV --> (shifted to ZERO)
# Broadening          =     0.0500 eV
#
#        E            N(up)  (=)   N(down)         Ntot
     -5.000000     31.067094     31.067094     62.134187
     -4.989990     35.830656     35.830656     71.661311
     -4.979980     40.433900     40.433900     80.867800
     -4.969970     44.128956     44.128956     88.257913
     -4.959960     46.231325     46.231325     92.462650
     -4.949950     46.344505     46.344505     92.689009
     -4.939940     44.500947     44.500947     89.001893
     -4.929930     41.171912     41.171912     82.343823
     -4.919920     37.160384     37.160384     74.320769
     -4.909910     33.430614     33.430614     66.861228
     -4.899900     30.924844     30.924844     61.849688
     -4.889890     30.388192     30.388192     60.776384
     -4.879880     32.203953     32.203953     64.407905
     -4.869870     36.257242     36.257242     72.514485
     -4.859860     41.879894     41.879894     83.759788
     -4.849850     47.941581     47.941581     95.883161
     -4.839840     53.110570     53.110570    106.221141
     -4.829830     56.224555     56.224555    112.449109
     -4.819820     56.638910     56.638910    113.277820
     -4.809810     54.409836     54.409836    108.819671
     -4.799800     50.237311     50.237311    100.474622
     -4.789790     45.200672     45.200672     90.401344
     -4.779780     40.404872     40.404872     80.809743
     -4.769770     36.673746     36.673746     73.347492
     -4.759760     34.380302     34.380302     68.760605
     -4.749750     33.433374     33.433374     66.866749
     -4.739740     33.386845     33.386845     66.773690
     -4.729730     33.616407     33.616407     67.232814
     -4.719720     33.508510     33.508510     67.017020
     -4.709710     32.613687     32.613687     65.227375
     -4.699700     30.731499     30.731499     61.462997
     -4.689690     27.920197     27.920197     55.840393
     -4.679680     24.453073     24.453073     48.906147
     -4.669670     20.757373     20.757373     41.514746
     -4.659660     17.361049     17.361049     34.722097
     -4.649650     14.847079     14.847079     29.694158
     -4.639640     13.795196     13.795196     27.590392
     -4.629630     14.690743     14.690743     29.381487
     -4.619620     17.799840     17.799840     35.599681
     -4.609610     23.039110     23.039110     46.078220
     -4.599600     29.893452     29.893452     59.786903
     -4.589590     37.441505     37.441505     74.883010
     -4.579580     44.523032     44.523032     89.046064
     -4.569570     50.026165     50.026165    100.052330
     -4.559560     53.207780     53.207780    106.415559
     -4.549550     53.923774     53.923774    107.847548
     -4.539540     52.665707     52.665707    105.331414
     -4.529530     50.374233     50.374233    100.748465
     -4.519520     48.094613     48.094613     96.189227
     -4.509510     46.608914     46.608914     93.217828
     -4.499499     46.189277     46.189277     92.378553
     -4.489489     46.562204     46.562204     93.124407
     -4.479479     47.081101     47.081101     94.162201
     -4.469469     47.017565     47.017565     94.035129
     -4.459459     45.841380     45.841380     91.682761
     -4.449449     43.381215     43.381215     86.762430
     -4.439439     39.826762     39.826762     79.653524
     -4.429429     35.609995     35.609995     71.219990
     -4.419419     31.248271     31.248271     62.496542
     -4.409409     27.225402     27.225402     54.450805
     -4.399399     23.939542     23.939542     47.879085
     -4.389389     21.693924     21.693924     43.387848
     -4.379379     20.684734     20.684734     41.369467
     -4.369369     20.962193     20.962193     41.924387
     -4.359359     22.385084     22.385084     44.770167
     -4.349349     24.617062     24.617062     49.234124
     -4.339339     27.200223     27.200223     54.400447
     -4.329329     29.695299     29.695299     59.390597
     -4.319319     31.831958     31.831958     63.663915
     -4.309309     33.598226     33.598226     67.196452
     -4.299299     35.222311     35.222311     70.444621
     -4.289289     37.046227     37.046227     74.092453
     -4.279279     39.334947     39.334947     78.669893
     -4.269269     42.092933     42.092933     84.185866
     -4.259259     44.966585     44.966585     89.933170
     -4.249249     47.291777     47.291777     94.583553
     -4.239239     48.295907     48.295907     96.591813
     -4.229229     47.392830     47.392830     94.785660
     -4.219219     44.448850     44.448850     88.897701
     -4.209209     39.890750     39.890750     79.781499
     -4.199199     34.591387     34.591387     69.182773
     -4.189189     29.576599     29.576599     59.153198
     -4.179179     25.686532     25.686532     51.373065
     -4.169169     23.341614     23.341614     46.683228
     -4.159159     22.501515     22.501515     45.003030
     -4.149149     22.806242     22.806242     45.612484
     -4.139139     23.808616     23.808616     47.617232
     -4.129129     25.181404     25.181404     50.362808
     -4.119119     26.809973     26.809973     53.619945
     -4.109109     28.740558     28.740558     57.481116
     -4.099099     31.020393     31.020393     62.040785
     -4.089089     33.518070     33.518070     67.036139
     -4.079079     35.830258     35.830258     71.660516
     -4.069069     37.347804     37.347804     74.695607
     -4.059059     37.474453     37.474453     74.948905
     -4.049049     35.901707     35.901707     71.803413
     -4.039039     32.799023     32.799023     65.598047
     -4.029029     28.814603     28.814603     57.629207
     -4.019019     24.881192     24.881192     49.762383
     -4.009009     21.922281     21.922281     43.844562
     -3.998999     20.595003     20.595003     41.190007
     -3.988989     21.168264     21.168264     42.336528
     -3.978979     23.551471     23.551471     47.102943
     -3.968969     27.416802     27.416802     54.833604
     -3.958959     32.335541     32.335541     64.671082
     -3.948949     37.876728     37.876728     75.753457
     -3.938939     43.661721     43.661721     87.323441
     -3.928929     49.394144     49.394144     98.788287
     -3.918919     54.877065     54.877065    109.754130
     -3.908909     60.005562     60.005562    120.011125
     -3.898899     64.714300     64.714300    129.428601
     -3.888889     68.882023     68.882023    137.764045
     -3.878879     72.233754     72.233754    144.467508
     -3.868869     74.304722     74.304722    148.609444
     -3.858859     74.514006     74.514006    149.028013
     -3.848849     72.344397     72.344397    144.688793
     -3.838839     67.565830     67.565830    135.131661
     -3.828829     60.406803     60.406803    120.813606
     -3.818819     51.590923     51.590923    103.181846
     -3.808809     42.209252     42.209252     84.418504
     -3.798799     33.466800     33.466800     66.933601
     -3.788789     26.390490     26.390490     52.780979
     -3.778779     21.594943     21.594943     43.189885
     -3.768769     19.173102     19.173102     38.346203
     -3.758759     18.730679     18.730679     37.461359
     -3.748749     19.539920     19.539920     39.079839
     -3.738739     20.762228     20.762228     41.524457
     -3.728729     21.681262     21.681262     43.362523
     -3.718719     21.891970     21.891970     43.783941
     -3.708709     21.401824     21.401824     42.803647
     -3.698699     20.616827     20.616827     41.233654
     -3.688689     20.208310     20.208310     40.416621
     -3.678679     20.886985     20.886985     41.773971
     -3.668669     23.143845     23.143845     46.287689
     -3.658659     27.041303     27.041303     54.082607
     -3.648649     32.135997     32.135997     64.271995
     -3.638639     37.575614     37.575614     75.151228
     -3.628629     42.343636     42.343636     84.687271
     -3.618619     45.559115     45.559115     91.118230
     -3.608609     46.713299     46.713299     93.426597
     -3.598599     45.760028     45.760028     91.520055
     -3.588589     43.051506     43.051506     86.103012
     -3.578579     39.177184     39.177184     78.354369
     -3.568569     34.783611     34.783611     69.567222
     -3.558559     30.428772     30.428772     60.857544
     -3.548549     26.488798     26.488798     52.977596
     -3.538539     23.117813     23.117813     46.235626
     -3.528529     20.263417     20.263417     40.526834
     -3.518519     17.739307     17.739307     35.478614
     -3.508509     15.338693     15.338693     30.677386
     -3.498498     12.948126     12.948126     25.896253
     -3.488488     10.614933     10.614933     21.229866
     -3.478478      8.543100      8.543100     17.086200
     -3.468468      7.027835      7.027835     14.055669
     -3.458458      6.362732      6.362732     12.725464
     -3.448448      6.752995      6.752995     13.505990
     -3.438438      8.252528      8.252528     16.505057
     -3.428428     10.730596     10.730596     21.461192
     -3.418418     13.873804     13.873804     27.747608
     -3.408408     17.233600     17.233600     34.467201
     -3.398398     20.323724     20.323724     40.647448
     -3.388388     22.751189     22.751189     45.502377
     -3.378378     24.339715     24.339715     48.679431
     -3.368368     25.195122     25.195122     50.390243
     -3.358358     25.678855     25.678855     51.357710
     -3.348348     26.291449     26.291449     52.582898
     -3.338338     27.502043     27.502043     55.004085
     -3.328328     29.576446     29.576446     59.152892
     -3.318318     32.453483     32.453483     64.906965
     -3.308308     35.708295     35.708295     71.416590
     -3.298298     38.628024     38.628024     77.256047
     -3.288288     40.401846     40.401846     80.803693
     -3.278278     40.384485     40.384485     80.768970
     -3.268268     38.342062     38.342062     76.684125
     -3.258258     34.568414     34.568414     69.136827
     -3.248248     29.800659     29.800659     59.601317
     -3.238238     24.956268     24.956268     49.912537
     -3.228228     20.806840     20.806840     41.613680
     -3.218218     17.736628     17.736628     35.473256
     -3.208208     15.686086     15.686086     31.372172
     -3.198198     14.284156     14.284156     28.568312
     -3.188188     13.085879     13.085879     26.171758
     -3.178178     11.798379     11.798379     23.596759
     -3.168168     10.405696     10.405696     20.811393
     -3.158158      9.164544      9.164544     18.329088
     -3.148148      8.500012      8.500012     17.000024
     -3.138138      8.855873      8.855873     17.711746
     -3.128128     10.547728     10.547728     21.095456
     -3.118118     13.648290     13.648290     27.296580
     -3.108108     17.923150     17.923150     35.846299
     -3.098098     22.835931     22.835931     45.671862
     -3.088088     27.639288     27.639288     55.278576
     -3.078078     31.546427     31.546427     63.092855
     -3.068068     33.938681     33.938681     67.877362
     -3.058058     34.532073     34.532073     69.064146
     -3.048048     33.429497     33.429497     66.858994
     -3.038038     31.034141     31.034141     62.068281
     -3.028028     27.870165     27.870165     55.740329
     -3.018018     24.404133     24.404133     48.808265
     -3.008008     20.953019     20.953019     41.906038
     -2.997998     17.706853     17.706853     35.413706
     -2.987988     14.825589     14.825589     29.651177
     -2.977978     12.534274     12.534274     25.068547
     -2.967968     11.154002     11.154002     22.308003
     -2.957958     11.050008     11.050008     22.100016
     -2.947948     12.520433     12.520433     25.040866
     -2.937938     15.670304     15.670304     31.340608
     -2.927928     20.316431     20.316431     40.632862
     -2.917918     25.960183     25.960183     51.920365
     -2.907908     31.850458     31.850458     63.700917
     -2.897898     37.135239     37.135239     74.270477
     -2.887888     41.066791     41.066791     82.133582
     -2.877878     43.194860     43.194860     86.389720
     -2.867868     43.473469     43.473469     86.946937
     -2.857858     42.233152     42.233152     84.466304
     -2.847848     40.025430     40.025430     80.050859
     -2.837838     37.404785     37.404785     74.809569
     -2.827828     34.743928     34.743928     69.487856
     -2.817818     32.161629     32.161629     64.323259
     -2.807808     29.584937     29.584937     59.169874
     -2.797798     26.898928     26.898928     53.797855
     -2.787788     24.094614     24.094614     48.189228
     -2.777778     21.332745     21.332745     42.665490
     -2.767768     18.893564     18.893564     37.787128
     -2.757758     17.049870     17.049870     34.099740
     -2.747748     15.944101     15.944101     31.888201
     -2.737738     15.544280     15.544280     31.088560
     -2.727728     15.701737     15.701737     31.403474
     -2.717718     16.266977     16.266977     32.533954
     -2.707708     17.181372     17.181372     34.362743
     -2.697698     18.478732     18.478732     36.957463
     -2.687688     20.194549     20.194549     40.389098
     -2.677678     22.250027     22.250027     44.500053
     -2.667668     24.403220     24.403220     48.806439
     -2.657658     26.318414     26.318414     52.636827
     -2.647648     27.722359     27.722359     55.444717
     -2.637638     28.550111     28.550111     57.100222
     -2.627628     28.983483     28.983483     57.966966
     -2.617618     29.353610     29.353610     58.707220
     -2.607608     29.966896     29.966896     59.933791
     -2.597598     30.957121     30.957121     61.914242
     -2.587588     32.237653     32.237653     64.475306
     -2.577578     33.554576     33.554576     67.109151
     -2.567568     34.583614     34.583614     69.167227
     -2.557558     35.011217     35.011217     70.022433
     -2.547548     34.583074     34.583074     69.166148
     -2.537538     33.144634     33.144634     66.289267
     -2.527528     30.698878     30.698878     61.397755
     -2.517518     27.469672     27.469672     54.939345
     -2.507508     23.923190     23.923190     47.846380
     -2.497497     20.702024     20.702024     41.404049
     -2.487487     18.469435     18.469435     36.938870
     -2.477477     17.714593     17.714593     35.429186
     -2.467467     18.598275     18.598275     37.196550
     -2.457457     20.906548     20.906548     41.813096
     -2.447447     24.135881     24.135881     48.271763
     -2.437437     27.677827     27.677827     55.355654
     -2.427427     31.027705     31.027705     62.055409
     -2.417417     33.928194     33.928194     67.856389
     -2.407407     36.384524     36.384524     72.769047
     -2.397397     38.545898     38.545898     77.091797
     -2.387387     40.513309     40.513309     81.026618
     -2.377377     42.174507     42.174507     84.349014
     -2.367367     43.159553     43.159553     86.319107
     -2.357357     42.954051     42.954051     85.908102
     -2.347347     41.126955     41.126955     82.253910
     -2.337337     37.566706     37.566706     75.133413
     -2.327327     32.609752     32.609752     65.219504
     -2.317317     26.997503     26.997503     53.995006
     -2.307307     21.682339     21.682339     43.364678
     -2.297297     17.570791     17.570791     35.141583
     -2.287287     15.306550     15.306550     30.613100
     -2.277277     15.158683     15.158683     30.317366
     -2.267267     17.023448     17.023448     34.046897
     -2.257257     20.506141     20.506141     41.012282
     -2.247247     25.036675     25.036675     50.073349
     -2.237237     29.981510     29.981510     59.963020
     -2.227227     34.730494     34.730494     69.460988
     -2.217217     38.751785     38.751785     77.503570
     -2.207207     41.620196     41.620196     83.240393
     -2.197197     43.033828     43.033828     86.067657
     -2.187187     42.836346     42.836346     85.672692
     -2.177177     41.051766     41.051766     82.103531
     -2.167167     37.916385     37.916385     75.832770
     -2.157157     33.872787     33.872787     67.745573
     -2.147147     29.494086     29.494086     58.988171
     -2.137137     25.341210     25.341210     50.682421
     -2.127127     21.804308     21.804308     43.608615
     -2.117117     19.005431     19.005431     38.010862
     -2.107107     16.817532     16.817532     33.635063
     -2.097097     14.992719     14.992719     29.985438
     -2.087087     13.330437     13.330437     26.660874
     -2.077077     11.794933     11.794933     23.589866
     -2.067067     10.523478     10.523478     21.046957
     -2.057057      9.729225      9.729225     19.458450
     -2.047047      9.556941      9.556941     19.113882
     -2.037037      9.968776      9.968776     19.937551
     -2.027027     10.717030     10.717030     21.434061
     -2.017017     11.416497     11.416497     22.832994
     -2.007007     11.682348     11.682348     23.364696
     -1.996997     11.271027     11.271027     22.542054
     -1.986987     10.163461     10.163461     20.326921
     -1.976977      8.560967      8.560967     17.121935
     -1.966967      6.807521      6.807521     13.615043
     -1.956957      5.282857      5.282857     10.565714
     -1.946947      4.312891      4.312891      8.625783
     -1.936937      4.120423      4.120423      8.240845
     -1.926927      4.809957      4.809957      9.619914
     -1.916917      6.366372      6.366372     12.732743
     -1.906907      8.654026      8.654026     17.308052
     -1.896897     11.420245     11.420245     22.840489
     -1.886887     14.317964     14.317964     28.635928
     -1.876877     16.957779     16.957779     33.915557
     -1.866867     18.984119     18.984119     37.968238
     -1.856857     20.155699     20.155699     40.311398
     -1.846847     20.405047     20.405047     40.810094
     -1.836837     19.855746     19.855746     39.711493
     -1.826827     18.785482     18.785482     37.570963
     -1.816817     17.537450     17.537450     35.074900
     -1.806807     16.403035     16.403035     32.806069
     -1.796797     15.518631     15.518631     31.037261
     -1.786787     14.824345     14.824345     29.648690
     -1.776777     14.109847     14.109847     28.219694
     -1.766767     13.129212     13.129212     26.258424
     -1.756757     11.728050     11.728050     23.456101
     -1.746747      9.919802      9.919802     19.839603
     -1.736737      7.879445      7.879445     15.758890
     -1.726727      5.870609      5.870609     11.741219
     -1.716717      4.154179      4.154179      8.308359
     -1.706707      2.925029      2.925029      5.850058
     -1.696697      2.295205      2.295205      4.590409
     -1.686687      2.309337      2.309337      4.618674
     -1.676677      2.962040      2.962040      5.924079
     -1.666667      4.194390      4.194390      8.388781
     -1.656657      5.869730      5.869730     11.739461
     -1.646647      7.752431      7.752431     15.504863
     -1.636637      9.521631      9.521631     19.043263
     -1.626627     10.837886     10.837886     21.675773
