# EIG2DOS: Utility for SIESTA to obtain the electronic density of states
#  E. Artacho, Apr 1999, A. Garcia, Apr 2012
#  Nick R. Papior, Feb 2017
# ------------------------------------------
# Eigenvalues calculated from a non-polarized calculation
# Eigenvalues read from siesta.EIG
# Kpoint weights read from siesta.KP
# Using smearing parameter:   0.0500
# Using 1000 points in the energy range
# Selected bands: 1 to: 2981
# Emin, Emax in file for selected band(s):    -27.2466108    218.3642980
# Nbands, Nspin, Nk   =   2981     1     1
# E_F                 =    -4.2382 eV --> (shifted to ZERO)
# Broadening          =     0.0500 eV
#
#        E            N(up)  (=)   N(down)         Ntot
     -5.000000     32.120205     32.120205     64.240409
     -4.989990     36.512918     36.512918     73.025835
     -4.979980     40.578451     40.578451     81.156902
     -4.969970     43.678004     43.678004     87.356008
     -4.959960     45.261906     45.261906     90.523811
     -4.949950     45.047926     45.047926     90.095852
     -4.939940     43.123763     43.123763     86.247527
     -4.929930     39.942905     39.942905     79.885811
     -4.919920     36.232810     36.232810     72.465620
     -4.909910     32.859826     32.859826     65.719652
     -4.899900     30.684210     30.684210     61.368419
     -4.889890     30.409879     30.409879     60.819757
     -4.879880     32.422390     32.422390     64.844781
     -4.869870     36.634363     36.634363     73.268726
     -4.859860     42.401655     42.401655     84.803310
     -4.849850     48.590583     48.590583     97.181166
     -4.839840     53.832337     53.832337    107.664674
     -4.829830     56.907358     56.907358    113.814717
     -4.819820     57.116387     57.116387    114.232775
     -4.809810     54.478660     54.478660    108.957319
     -4.799800     49.671928     49.671928     99.343855
     -4.789790     43.752967     43.752967     87.505934
     -4.779780     37.795959     37.795959     75.591917
     -4.769770     32.603182     32.603182     65.206364
     -4.759760     28.578449     28.578449     57.156899
     -4.749750     25.759841     25.759841     51.519682
     -4.739740     23.943409     23.943409     47.886818
     -4.729730     22.819238     22.819238     45.638475
     -4.719720     22.071059     22.071059     44.142118
     -4.709710     21.429773     21.429773     42.859546
     -4.699700     20.697909     20.697909     41.395817
     -4.689690     19.769789     19.769789     39.539578
     -4.679680     18.662477     18.662477     37.324954
     -4.669670     17.551538     17.551538     35.103075
     -4.659660     16.785157     16.785157     33.570313
     -4.649650     16.845414     16.845414     33.690828
     -4.639640     18.243600     18.243600     36.487201
     -4.629630     21.368248     21.368248     42.736496
     -4.619620     26.330842     26.330842     52.661684
     -4.609610     32.861223     32.861223     65.722446
     -4.599600     40.292871     40.292871     80.585742
     -4.589590     47.656573     47.656573     95.313145
     -4.579580     53.875340     53.875340    107.750681
     -4.569570     58.024088     58.024088    116.048176
     -4.559560     59.586912     59.586912    119.173824
     -4.549550     58.625749     58.625749    117.251499
     -4.539540     55.785199     55.785199    111.570398
     -4.529530     52.108010     52.108010    104.216020
     -4.519520     48.709885     48.709885     97.419771
     -4.509510     46.426671     46.426671     92.853342
     -4.499499     45.566511     45.566511     91.133022
     -4.489489     45.859496     45.859496     91.718992
     -4.479479     46.614368     46.614368     93.228737
     -4.469469     47.005915     47.005915     94.011829
     -4.459459     46.369599     46.369599     92.739198
     -4.449449     44.392386     44.392386     88.784772
     -4.439439     41.149710     41.149710     82.299421
     -4.429429     37.013096     37.013096     74.026193
     -4.419419     32.501843     32.501843     65.003686
     -4.409409     28.153486     28.153486     56.306972
     -4.399399     24.448331     24.448331     48.896661
     -4.389389     21.774547     21.774547     43.549095
     -4.379379     20.397059     20.397059     40.794119
     -4.369369     20.409852     20.409852     40.819703
     -4.359359     21.689824     21.689824     43.379648
     -4.349349     23.895876     23.895876     47.791753
     -4.339339     26.545281     26.545281     53.090562
     -4.329329     29.156626     29.156626     58.313252
     -4.319319     31.405153     31.405153     62.810306
     -4.309309     33.222100     33.222100     66.444199
     -4.299299     34.792191     34.792191     69.584382
     -4.289289     36.446332     36.446332     72.892664
     -4.279279     38.486711     38.486711     76.973422
     -4.269269     41.006087     41.006087     82.012174
     -4.259259     43.770530     43.770530     87.541060
     -4.249249     46.224463     46.224463     92.448925
     -4.239239     47.642040     47.642040     95.284080
     -4.229229     47.389104     47.389104     94.778209
     -4.219219     45.195959     45.195959     90.391918
     -4.209209     41.313515     41.313515     82.627030
     -4.199199     36.465181     36.465181     72.930361
     -4.189189     31.604107     31.604107     63.208213
     -4.179179     27.585806     27.585806     55.171613
     -4.169169     24.907513     24.907513     49.815025
     -4.159159     23.623591     23.623591     47.247182
     -4.149149     23.450827     23.450827     46.901654
     -4.139139     23.986924     23.986924     47.973849
     -4.129129     24.925019     24.925019     49.850037
     -4.119119     26.164891     26.164891     52.329782
     -4.109109     27.778294     27.778294     55.556588
     -4.099099     29.854631     29.854631     59.709261
     -4.089089     32.311257     32.311257     64.622513
     -4.079079     34.778132     34.778132     69.556263
     -4.069069     36.640799     36.640799     73.281599
     -4.059059     37.248441     37.248441     74.496882
     -4.049049     36.198721     36.198721     72.397442
     -4.039039     33.555448     33.555448     67.110895
     -4.029029     29.880799     29.880799     59.761599
     -4.019019     26.061422     26.061422     52.122845
     -4.009009     23.016973     23.016973     46.033945
     -3.998999     21.432233     21.432233     42.864465
     -3.988989     21.622172     21.622172     43.244345
     -3.978979     23.552675     23.552675     47.105350
     -3.968969     26.958785     26.958785     53.917570
     -3.958959     31.474679     31.474679     62.949359
     -3.948949     36.719750     36.719750     73.439500
     -3.938939     42.338268     42.338268     84.676535
     -3.928929     48.021829     48.021829     96.043659
     -3.918919     53.534619     53.534619    107.069238
     -3.908909     58.729013     58.729013    117.458026
     -3.898899     63.519964     63.519964    127.039929
     -3.888889     67.804014     67.804014    135.608028
     -3.878879     71.352760     71.352760    142.705519
     -3.868869     73.746894     73.746894    147.493788
     -3.858859     74.414411     74.414411    148.828822
     -3.848849     72.790052     72.790052    145.580103
     -3.838839     68.546492     68.546492    137.092984
     -3.828829     61.799022     61.799022    123.598044
     -3.818819     53.184131     53.184131    106.368263
     -3.808809     43.762170     43.762170     87.524341
     -3.798799     34.770137     34.770137     69.540275
     -3.788789     27.313114     27.313114     54.626228
     -3.778779     22.101890     22.101890     44.203779
     -3.768769     19.316565     19.316565     38.633131
     -3.758759     18.622862     18.622862     37.245724
     -3.748749     19.317970     19.317970     38.635940
     -3.738739     20.553323     20.553323     41.106647
     -3.728729     21.573529     21.573529     43.147058
     -3.718719     21.915719     21.915719     43.831439
     -3.708709     21.524731     21.524731     43.049461
     -3.698699     20.755045     20.755045     41.510089
     -3.688689     20.252328     20.252328     40.504655
     -3.678679     20.736848     20.736848     41.473695
     -3.668669     22.744300     22.744300     45.488600
     -3.658659     26.405499     26.405499     52.810999
     -3.648649     31.348452     31.348452     62.696905
     -3.638639     36.771907     36.771907     73.543814
     -3.628629     41.673422     41.673422     83.346844
     -3.618619     45.146123     45.146123     90.292245
     -3.608609     46.626589     46.626589     93.253179
     -3.598599     46.004561     46.004561     92.009122
     -3.588589     43.576945     43.576945     87.153889
     -3.578579     39.897577     39.897577     79.795154
     -3.568569     35.599765     35.599765     71.199531
     -3.558559     31.248005     31.248005     62.496009
     -3.548549     27.239645     27.239645     54.479290
     -3.538539     23.758269     23.758269     47.516538
     -3.528529     20.781431     20.781431     41.562861
     -3.518519     18.145483     18.145483     36.290965
     -3.508509     15.653538     15.653538     31.307076
     -3.498498     13.187861     13.187861     26.375722
     -3.488488     10.778967     10.778967     21.557935
     -3.478478      8.603110      8.603110     17.206221
     -3.468468      6.915398      6.915398     13.830796
     -3.458458      5.952721      5.952721     11.905442
     -3.448448      5.844761      5.844761     11.689522
     -3.438438      6.558891      6.558891     13.117782
     -3.428428      7.891366      7.891366     15.782732
     -3.418418      9.509819      9.509819     19.019637
     -3.408408     11.044270     11.044270     22.088539
     -3.398398     12.207473     12.207473     24.414947
     -3.388388     12.904793     12.904793     25.809586
     -3.378378     13.285996     13.285996     26.571992
     -3.368368     13.710098     13.710098     27.420195
     -3.358358     14.633799     14.633799     29.267598
     -3.348348     16.469296     16.469296     32.938592
     -3.338338     19.463884     19.463884     38.927767
     -3.328328     23.629730     23.629730     47.259459
     -3.318318     28.720625     28.720625     57.441250
     -3.308308     34.241410     34.241410     68.482821
     -3.298298     39.490984     39.490984     78.981967
     -3.288288     43.658116     43.658116     87.316233
     -3.278278     45.980770     45.980770     91.961541
     -3.268268     45.939804     45.939804     91.879608
     -3.258258     43.417126     43.417126     86.834252
     -3.248248     38.745280     38.745280     77.490561
     -3.238238     32.620608     32.620608     65.241217
     -3.228228     25.916870     25.916870     51.833740
     -3.218218     19.477791     19.477791     38.955582
     -3.208208     13.963253     13.963253     27.926506
     -3.198198      9.785282      9.785282     19.570564
     -3.188188      7.124889      7.124889     14.249779
     -3.178178      5.992748      5.992748     11.985497
     -3.168168      6.293587      6.293587     12.587175
     -3.158158      7.870133      7.870133     15.740266
     -3.148148     10.524226     10.524226     21.048453
     -3.138138     14.026486     14.026486     28.052973
     -3.128128     18.124486     18.124486     36.248972
     -3.118118     22.547949     22.547949     45.095898
     -3.108108     27.002782     27.002782     54.005564
     -3.098098     31.155081     31.155081     62.310161
     -3.088088     34.626054     34.626054     69.252109
     -3.078078     37.027622     37.027622     74.055244
     -3.068068     38.048667     38.048667     76.097334
     -3.058058     37.560831     37.560831     75.121663
     -3.048048     35.682565     35.682565     71.365129
     -3.038038     32.751922     32.751922     65.503844
     -3.028028     29.211776     29.211776     58.423552
     -3.018018     25.468866     25.468866     50.937732
     -3.008008     21.806003     21.806003     43.612005
     -2.997998     18.390217     18.390217     36.780435
     -2.987988     15.356248     15.356248     30.712496
     -2.977978     12.900280     12.900280     25.800560
     -2.967968     11.319912     11.319912     22.639824
     -2.957958     10.973514     10.973514     21.947028
     -2.947948     12.175092     12.175092     24.350184
     -2.937938     15.066086     15.066086     30.132172
     -2.927928     19.510452     19.510452     39.020904
     -2.917918     25.052750     25.052750     50.105501
     -2.907908     30.965801     30.965801     61.931603
     -2.897898     36.391608     36.391608     72.783216
     -2.887888     40.545616     40.545616     81.091232
     -2.877878     42.920620     42.920620     85.841241
     -2.867868     43.412993     43.412993     86.825986
     -2.857858     42.315608     42.315608     84.631216
     -2.847848     40.175354     40.175354     80.350709
     -2.837838     37.574250     37.574250     75.148500
     -2.827828     34.929610     34.929610     69.859220
     -2.817818     32.398984     32.398984     64.797968
     -2.807808     29.922439     29.922439     59.844877
     -2.797798     27.365300     27.365300     54.730601
     -2.787788     24.675657     24.675657     49.351314
     -2.777778     21.969209     21.969209     43.938418
     -2.767768     19.499924     19.499924     38.999848
     -2.757758     17.542361     17.542361     35.084722
     -2.747748     16.261934     16.261934     32.523868
     -2.737738     15.653493     15.653493     31.306986
     -2.727728     15.583528     15.583528     31.167056
     -2.717718     15.903804     15.903804     31.807609
     -2.707708     16.556646     16.556646     33.113291
     -2.697698     17.596614     17.596614     35.193229
     -2.687688     19.110069     19.110069     38.220137
     -2.677678     21.087218     21.087218     42.174436
     -2.667668     23.340589     23.340589     46.681179
     -2.657658     25.538575     25.538575     51.077149
     -2.647648     27.346242     27.346242     54.692484
     -2.637638     28.589509     28.589509     57.179019
     -2.627628     29.337938     29.337938     58.675877
     -2.617618     29.852892     29.852892     59.705784
     -2.607608     30.435471     30.435471     60.870943
     -2.597598     31.269057     31.269057     62.538114
     -2.587588     32.342621     32.342621     64.685241
     -2.577578     33.475914     33.475914     66.951828
     -2.567568     34.401455     34.401455     68.802910
     -2.557558     34.841145     34.841145     69.682290
     -2.547548     34.551291     34.551291     69.102582
     -2.537538     33.356553     33.356553     66.713106
     -2.527528     31.204338     31.204338     62.408677
     -2.517518     28.237561     28.237561     56.475121
     -2.507508     24.840294     24.840294     49.680587
     -2.497497     21.601234     21.601234     43.202468
     -2.487487     19.177377     19.177377     38.354755
     -2.477477     18.099091     18.099091     36.198183
     -2.467467     18.597609     18.597609     37.195217
     -2.457457     20.532813     20.532813     41.065626
     -2.447447     23.456673     23.456673     46.913345
     -2.437437     26.787934     26.787934     53.575869
     -2.427427     30.023587     30.023587     60.047173
     -2.417417     32.893958     32.893958     65.787917
     -2.407407     35.391671     35.391671     70.783341
     -2.397397     37.662758     37.662758     75.325516
     -2.387387     39.815883     39.815883     79.631766
     -2.377377     41.749548     41.749548     83.499097
     -2.367367     43.093652     43.093652     86.187304
     -2.357357     43.309000     43.309000     86.617999
     -2.347347     41.909866     41.909866     83.819732
     -2.337337     38.709149     38.709149     77.418298
     -2.327327     33.969041     33.969041     67.938081
     -2.317317     28.384050     28.384050     56.768100
     -2.307307     22.904245     22.904245     45.808490
     -2.297297     18.478319     18.478319     36.956638
     -2.287287     15.819953     15.819953     31.639906
     -2.277277     15.271761     15.271761     30.543523
     -2.267267     16.786333     16.786333     33.572667
     -2.257257     19.998438     19.998438     39.996875
     -2.247247     24.343713     24.343713     48.687425
     -2.237237     29.182582     29.182582     58.365165
     -2.227227     33.900647     33.900647     67.801293
     -2.217217     37.970931     37.970931     75.941862
     -2.207207     40.978741     40.978741     81.957482
     -2.197197     42.625552     42.625552     85.251105
     -2.187187     42.736949     42.736949     85.473898
     -2.177177     41.291394     41.291394     82.582788
     -2.167167     38.460758     38.460758     76.921516
     -2.157157     34.625697     34.625697     69.251394
     -2.147147     30.324032     30.324032     60.648064
     -2.137137     26.121543     26.121543     52.243085
     -2.127127     22.447125     22.447125     44.894249
     -2.117117     19.470306     19.470306     38.940612
     -2.107107     17.087127     17.087127     34.174255
     -2.097097     15.022824     15.022824     30.045647
     -2.087087     12.994262     12.994262     25.988524
     -2.077077     10.846063     10.846063     21.692126
     -2.067067      8.598653      8.598653     17.197306
     -2.057057      6.403145      6.403145     12.806291
     -2.047047      4.446981      4.446981      8.893962
     -2.037037      2.868001      2.868001      5.736001
     -2.027027      1.713673      1.713673      3.427346
     -2.017017      0.948651      0.948651      1.897301
     -2.007007      0.490471      0.490471      0.980942
     -1.996997      0.249180      0.249180      0.498360
     -1.986987      0.156312      0.156312      0.312624
     -1.976977      0.180963      0.180963      0.361926
     -1.966967      0.337719      0.337719      0.675439
     -1.956957      0.691085      0.691085      1.382169
     -1.946947      1.356306      1.356306      2.712612
     -1.936937      2.491080      2.491080      4.982160
     -1.926927      4.270415      4.270415      8.540831
     -1.916917      6.840350      6.840350     13.680700
     -1.906907     10.255266     10.255266     20.510531
     -1.896897     14.414872     14.414872     28.829744
     -1.886887     19.025224     19.025224     38.050448
     -1.876877     23.608515     23.608515     47.217030
     -1.866867     27.576314     27.576314     55.152628
     -1.856857     30.360739     30.360739     60.721477
     -1.846847     31.571600     31.571600     63.143199
     -1.836837     31.124410     31.124410     62.248820
     -1.826827     29.279565     29.279565     58.559131
     -1.816817     26.559712     26.559712     53.119424
     -1.806807     23.566509     23.566509     47.133017
     -1.796797     20.772933     20.772933     41.545865
     -1.786787     18.386573     18.386573     36.773145
     -1.776777     16.344513     16.344513     32.689025
     -1.766767     14.429288     14.429288     28.858577
     -1.756757     12.432568     12.432568     24.865135
     -1.746747     10.277780     10.277780     20.555561
     -1.736737      8.050162      8.050162     16.100325
     -1.726727      5.942596      5.942596     11.885192
     -1.716717      4.167923      4.167923      8.335846
     -1.706707      2.891397      2.891397      5.782793
     -1.696697      2.208205      2.208205      4.416410
     -1.686687      2.155655      2.155655      4.311310
     -1.676677      2.730371      2.730371      5.460742
     -1.666667      3.885627      3.885627      7.771253
     -1.656657      5.505800      5.505800     11.011599
     -1.646647      7.379085      7.379085     14.758169
     -1.636637      9.200838      9.200838     18.401676
     -1.626627     10.629502     10.629502     21.259004
