# EIG2DOS: Utility for SIESTA to obtain the electronic density of states
#  E. Artacho, Apr 1999, A. Garcia, Apr 2012
#  Nick R. Papior, Feb 2017
# ------------------------------------------
# Eigenvalues calculated from a non-polarized calculation
# Eigenvalues read from siesta.EIG
# Kpoint weights read from siesta.KP
# Using smearing parameter:   0.0500
# Using 1000 points in the energy range
# Selected bands: 1 to: 2981
# Emin, Emax in file for selected band(s):    -27.0655515    218.3341940
# Nbands, Nspin, Nk   =   2981     1     1
# E_F                 =    -4.2750 eV --> (shifted to ZERO)
# Broadening          =     0.0500 eV
#
#        E            N(up)  (=)   N(down)         Ntot
     -5.000000     38.391807     38.391807     76.783614
     -4.989990     40.552517     40.552517     81.105034
     -4.979980     42.516775     42.516775     85.033550
     -4.969970     43.841787     43.841787     87.683573
     -4.959960     44.129240     44.129240     88.258479
     -4.949950     43.172963     43.172963     86.345927
     -4.939940     41.039272     41.039272     82.078544
     -4.929930     38.068936     38.068936     76.137873
     -4.919920     34.823191     34.823191     69.646382
     -4.909910     32.002574     32.002574     64.005148
     -4.899900     30.348098     30.348098     60.696196
     -4.889890     30.511145     30.511145     61.022289
     -4.879880     32.880592     32.880592     65.761185
     -4.869870     37.394961     37.394961     74.789922
     -4.859860     43.420948     43.420948     86.841896
     -4.849850     49.799072     49.799072     99.598144
     -4.839840     55.105482     55.105482    110.210964
     -4.829830     58.069070     58.069070    116.138141
     -4.819820     57.980172     57.980172    115.960345
     -4.809810     54.906287     54.906287    109.812575
     -4.799800     49.617333     49.617333     99.234666
     -4.789790     43.268704     43.268704     86.537408
     -4.779780     37.003148     37.003148     74.006295
     -4.769770     31.645675     31.645675     63.291349
     -4.759760     27.584992     27.584992     55.169983
     -4.749750     24.826013     24.826013     49.652026
     -4.739740     23.130156     23.130156     46.260312
     -4.729730     22.157515     22.157515     44.315030
     -4.719720     21.563843     21.563843     43.127686
     -4.709710     21.047576     21.047576     42.095152
     -4.699700     20.366681     20.366681     40.733362
     -4.689690     19.350893     19.350893     38.701786
     -4.679680     17.927556     17.927556     35.855112
     -4.669670     16.163068     16.163068     32.326136
     -4.659660     14.303054     14.303054     28.606108
     -4.649650     12.782804     12.782804     25.565608
     -4.639640     12.182405     12.182405     24.364811
     -4.629630     13.116423     13.116423     26.232847
     -4.619620     16.068692     16.068692     32.137383
     -4.609610     21.205002     21.205002     42.410003
     -4.599600     28.219630     28.219630     56.439260
     -4.589590     36.287789     36.287789     72.575579
     -4.579580     44.185713     44.185713     88.371426
     -4.569570     50.586884     50.586884    101.173769
     -4.559560     54.458144     54.458144    108.916288
     -4.549550     55.407783     55.407783    110.815565
     -4.539540     53.831303     53.831303    107.662606
     -4.529530     50.777354     50.777354    101.554707
     -4.519520     47.580944     47.580944     95.161888
     -4.509510     45.414972     45.414972     90.829944
     -4.499499     44.938136     44.938136     89.876273
     -4.489489     46.158380     46.158380     92.316759
     -4.479479     48.525474     48.525474     97.050947
     -4.469469     51.173669     51.173669    102.347338
     -4.459459     53.198553     53.198553    106.397105
     -4.449449     53.876343     53.876343    107.752687
     -4.439439     52.789641     52.789641    105.579283
     -4.429429     49.871417     49.871417     99.742834
     -4.419419     45.395002     45.395002     90.790003
     -4.409409     39.925343     39.925343     79.850686
     -4.399399     34.228104     34.228104     68.456208
     -4.389389     29.130363     29.130363     58.260727
     -4.379379     25.346013     25.346013     50.692025
     -4.369369     23.307868     23.307868     46.615736
     -4.359359     23.065063     23.065063     46.130127
     -4.349349     24.292016     24.292016     48.584032
     -4.339339     26.414909     26.414909     52.829818
     -4.329329     28.812109     28.812109     57.624219
     -4.319319     31.012726     31.012726     62.025451
     -4.309309     32.820204     32.820204     65.640409
     -4.299299     34.322603     34.322603     68.645205
     -4.289289     35.796996     35.796996     71.593992
     -4.279279     37.549425     37.549425     75.098850
     -4.269269     39.744885     39.744885     79.489771
     -4.259259     42.281038     42.281038     84.562077
     -4.249249     44.752852     44.752852     89.505705
     -4.239239     46.539121     46.539121     93.078241
     -4.229229     47.004081     47.004081     94.008163
     -4.219219     45.750487     45.750487     91.500974
     -4.209209     42.814355     42.814355     85.628709
     -4.199199     38.697355     38.697355     77.394710
     -4.189189     34.204585     34.204585     68.409171
     -4.179179     30.157868     30.157868     60.315735
     -4.169169     27.122664     27.122664     54.245327
     -4.159159     25.275126     25.275126     50.550251
     -4.149149     24.454482     24.454482     48.908965
     -4.139139     24.348879     24.348879     48.697757
     -4.129129     24.704830     24.704830     49.409659
     -4.119119     25.453034     25.453034     50.906068
     -4.109109     26.693136     26.693136     53.386273
     -4.099099     28.550123     28.550123     57.100246
     -4.089089     30.979674     30.979674     61.959347
     -4.079079     33.634569     33.634569     67.269137
     -4.069069     35.886887     35.886887     71.773774
     -4.059059     37.026363     37.026363     74.052726
     -4.049049     36.554672     36.554672     73.109344
     -4.039039     34.428321     34.428321     68.856643
     -4.029029     31.119066     31.119066     62.238132
     -4.019019     27.457878     27.457878     54.915756
     -4.009009     24.346471     24.346471     48.692943
     -3.998999     22.483275     22.483275     44.966549
     -3.988989     22.222262     22.222262     44.444524
     -3.978979     23.590852     23.590852     47.181704
     -3.968969     26.404190     26.404190     52.808381
     -3.958959     30.383240     30.383240     60.766481
     -3.948949     35.220277     35.220277     70.440555
     -3.938939     40.597451     40.597451     81.194902
     -3.928929     46.199929     46.199929     92.399858
     -3.918919     51.751291     51.751291    103.502582
     -3.908909     57.055499     57.055499    114.110998
     -3.898899     62.000360     62.000360    124.000719
     -3.888889     66.491667     66.491667    132.983334
     -3.878879     70.337769     70.337769    140.675539
     -3.868869     73.154094     73.154094    146.308187
     -3.858859     74.367403     74.367403    148.734806
     -3.848849     73.356988     73.356988    146.713976
     -3.838839     69.695209     69.695209    139.390418
     -3.828829     63.385466     63.385466    126.770932
     -3.818819     54.981129     54.981129    109.962259
     -3.808809     45.516159     45.516159     91.032317
     -3.798799     36.262521     36.262521     72.525042
     -3.788789     28.404889     28.404889     56.809779
     -3.778779     22.751055     22.751055     45.502110
     -3.768769     19.569740     19.569740     39.139480
     -3.758759     18.589524     18.589524     37.179048
     -3.748749     19.136866     19.136866     38.273733
     -3.738739     20.358571     20.358571     40.717141
     -3.728729     21.465768     21.465768     42.931537
     -3.718719     21.942532     21.942532     43.885063
     -3.708709     21.673685     21.673685     43.347371
     -3.698699     20.961137     20.961137     41.922274
     -3.688689     20.418715     20.418715     40.837430
     -3.678679     20.764297     20.764297     41.528594
     -3.668669     22.561754     22.561754     45.123508
     -3.658659     25.993008     25.993008     51.986017
     -3.648649     30.745405     30.745405     61.490809
     -3.638639     36.068078     36.068078     72.136156
     -3.628629     40.986374     40.986374     81.972748
     -3.618619     44.593105     44.593105     89.186209
     -3.608609     46.299910     46.299910     92.599821
     -3.598599     45.956199     45.956199     91.912398
     -3.588589     43.813473     43.813473     87.626947
     -3.578579     40.383483     40.383483     80.766966
     -3.568569     36.266986     36.266986     72.533971
     -3.558559     32.010324     32.010324     64.020647
     -3.548549     28.010142     28.010142     56.020285
     -3.538539     24.466109     24.466109     48.932218
     -3.528529     21.383014     21.383014     42.766028
     -3.518519     18.626448     18.626448     37.252896
     -3.508509     16.022032     16.022032     32.044065
     -3.498498     13.463301     13.463301     26.926603
     -3.488488     10.981740     10.981740     21.963479
     -3.478478      8.748781      8.748781     17.497562
     -3.468468      7.013854      7.013854     14.027708
     -3.458458      6.010318      6.010318     12.020636
     -3.448448      5.867018      5.867018     11.734036
     -3.438438      6.552025      6.552025     13.104050
     -3.428428      7.861997      7.861997     15.723994
     -3.418418      9.462938      9.462938     18.925876
     -3.408408     10.980141     10.980141     21.960281
     -3.398398     12.118686     12.118686     24.237372
     -3.388388     12.774979     12.774979     25.549959
     -3.378378     13.091102     13.091102     26.182205
     -3.368368     13.421334     13.421334     26.842667
     -3.358358     14.219066     14.219066     28.438132
     -3.348348     15.888628     15.888628     31.777257
     -3.338338     18.655781     18.655781     37.311563
     -3.328328     22.489605     22.489605     44.979210
     -3.318318     27.078630     27.078630     54.157260
     -3.308308     31.852225     31.852225     63.704451
     -3.298298     36.050048     36.050048     72.100095
     -3.288288     38.854734     38.854734     77.709469
     -3.278278     39.586670     39.586670     79.173339
     -3.268268     37.913089     37.913089     75.826178
     -3.258258     33.983289     33.983289     67.966578
     -3.248248     28.411487     28.411487     56.822974
     -3.238238     22.097060     22.097060     44.194119
     -3.228228     15.956572     15.956572     31.913144
     -3.218218     10.684538     10.684538     21.369076
     -3.208208      6.633687      6.633687     13.267374
     -3.198198      3.835076      3.835076      7.670152
     -3.188188      2.113596      2.113596      4.227193
     -3.178178      1.230073      1.230073      2.460145
     -3.168168      0.996788      0.996788      1.993575
     -3.158158      1.344501      1.344501      2.689002
     -3.148148      2.341625      2.341625      4.683251
     -3.138138      4.171889      4.171889      8.343778
     -3.128128      7.072914      7.072914     14.145827
     -3.118118     11.237792     11.237792     22.475583
     -3.108108     16.693299     16.693299     33.386598
     -3.098098     23.189159     23.189159     46.378319
     -3.088088     30.149371     30.149371     60.298743
     -3.078078     36.731637     36.731637     73.463275
     -3.068068     42.005256     42.005256     84.010511
     -3.058058     45.201424     45.201424     90.402848
     -3.048048     45.942504     45.942504     91.885008
     -3.038038     44.351889     44.351889     88.703778
     -3.028028     40.995691     40.995691     81.991382
     -3.018018     36.687042     36.687042     73.374084
     -3.008008     32.245381     32.245381     64.490762
     -2.997998     28.310117     28.310117     56.620233
     -2.987988     25.263265     25.263265     50.526531
     -2.977978     23.255737     23.255737     46.511474
     -2.967968     22.293556     22.293556     44.587111
     -2.957958     22.333142     22.333142     44.666283
     -2.947948     23.344881     23.344881     46.689761
     -2.937938     25.318943     25.318943     50.637886
     -2.927928     28.208421     28.208421     56.416841
     -2.917918     31.836613     31.836613     63.673227
     -2.907908     35.826085     35.826085     71.652170
     -2.897898     39.611506     39.611506     79.223012
     -2.887888     42.561195     42.561195     85.122389
     -2.877878     44.168900     44.168900     88.337799
     -2.867868     44.227400     44.227400     88.454800
     -2.857858     42.894007     42.894007     85.788015
     -2.847848     40.609610     40.609610     81.219219
     -2.837838     37.908189     37.908189     75.816377
     -2.827828     35.209619     35.209619     70.419237
     -2.817818     32.694267     32.694267     65.388533
     -2.807808     30.311780     30.311780     60.623561
     -2.797798     27.904712     27.904712     55.809424
     -2.787788     25.369304     25.369304     50.738608
     -2.777778     22.761641     22.761641     45.523282
     -2.767768     20.293888     20.293888     40.587777
     -2.757758     18.231309     18.231309     36.462619
     -2.747748     16.758464     16.758464     33.516928
     -2.737738     15.899039     15.899039     31.798077
     -2.727728     15.538183     15.538183     31.076366
     -2.717718     15.529882     15.529882     31.059765
     -2.707708     15.815617     15.815617     31.631234
     -2.697698     16.471198     16.471198     32.942397
     -2.687688     17.644596     17.644596     35.289191
     -2.677678     19.421197     19.421197     38.842394
     -2.667668     21.706075     21.706075     43.412151
     -2.657658     24.207964     24.207964     48.415929
     -2.647648     26.546418     26.546418     53.092836
     -2.637638     28.422161     28.422161     56.844322
     -2.627628     29.746683     29.746683     59.493366
     -2.617618     30.652813     30.652813     61.305626
     -2.607608     31.386430     31.386430     62.772859
     -2.597598     32.154247     32.154247     64.308495
     -2.587588     33.020151     33.020151     66.040302
     -2.577578     33.894666     33.894666     67.789332
     -2.567568     34.592446     34.592446     69.184892
     -2.557558     34.898612     34.898612     69.797223
     -2.547548     34.607855     34.607855     69.215710
     -2.537538     33.549092     33.549092     67.098184
     -2.527528     31.631311     31.631311     63.262621
     -2.517518     28.920159     28.920159     57.840319
     -2.507508     25.705952     25.705952     51.411905
     -2.497497     22.500714     22.500714     45.001427
     -2.487487     19.930119     19.930119     39.860238
     -2.477477     18.547557     18.547557     37.095114
     -2.467467     18.648765     18.648765     37.297531
     -2.457457     20.173493     20.173493     40.346987
     -2.447447     22.742389     22.742389     45.484777
     -2.437437     25.814954     25.814954     51.629908
     -2.427427     28.898454     28.898454     57.796909
     -2.417417     31.713164     31.713164     63.426327
     -2.407407     34.238018     34.238018     68.476035
     -2.397397     36.616149     36.616149     73.232298
     -2.387387     38.968055     38.968055     77.936110
     -2.377377     41.208941     41.208941     82.417883
     -2.367367     42.970736     42.970736     85.941472
     -2.357357     43.683160     43.683160     87.366320
     -2.347347     42.791059     42.791059     85.582119
     -2.337337     40.013842     40.013842     80.027683
     -2.327327     35.525545     35.525545     71.051090
     -2.317317     29.968736     29.968736     59.937472
     -2.307307     24.294982     24.294982     48.589963
     -2.297297     19.503963     19.503963     39.007927
     -2.287287     16.388623     16.388623     32.777245
     -2.277277     15.372287     15.372287     30.744575
     -2.267267     16.469170     16.469170     32.938339
     -2.257257     19.348628     19.348628     38.697257
     -2.247247     23.458231     23.458231     46.916462
     -2.237237     28.159372     28.159372     56.318743
     -2.227227     32.839585     32.839585     65.679170
     -2.217217     36.980148     36.980148     73.960297
     -2.207207     40.176037     40.176037     80.352074
     -2.197197     42.126593     42.126593     84.253185
     -2.187187     42.629594     42.629594     85.259188
     -2.177177     41.605395     41.605395     83.210790
     -2.167167     39.148355     39.148355     78.296709
     -2.157157     35.566671     35.566671     71.133341
     -2.147147     31.358226     31.358226     62.716452
     -2.137137     27.097798     27.097798     54.195596
     -2.127127     23.267923     23.267923     46.535845
     -2.117117     20.112470     20.112470     40.224941
     -2.107107     17.590860     17.590860     35.181719
     -2.097097     15.457390     15.457390     30.914780
     -2.087087     13.419355     13.419355     26.838711
     -2.077077     11.287245     11.287245     22.574491
     -2.067067      9.044921      9.044921     18.089841
     -2.057057      6.821949      6.821949     13.643898
     -2.047047      4.804700      4.804700      9.609400
     -2.037037      3.144748      3.144748      6.289496
     -2.027027      1.907682      1.907682      3.815365
     -2.017017      1.072078      1.072078      2.144157
     -2.007007      0.561630      0.561630      1.123260
     -1.996997      0.285580      0.285580      0.571160
     -1.986987      0.170293      0.170293      0.340586
     -1.976977      0.177211      0.177211      0.354422
     -1.966967      0.310487      0.310487      0.620974
     -1.956957      0.618455      0.618455      1.236911
     -1.946947      1.189061      1.189061      2.378122
     -1.936937      2.135027      2.135027      4.270053
     -1.926927      3.564223      3.564223      7.128446
     -1.916917      5.536589      5.536589     11.073177
     -1.906907      8.018999      8.018999     16.037999
     -1.896897     10.857364     10.857364     21.714729
     -1.886887     13.783887     13.783887     27.567774
     -1.876877     16.464964     16.464964     32.929927
     -1.866867     18.577829     18.577829     37.155659
     -1.856857     19.891873     19.891873     39.783747
     -1.846847     20.329127     20.329127     40.658255
     -1.836837     19.985070     19.985070     39.970140
     -1.826827     19.100241     19.100241     38.200481
     -1.816817     17.984588     17.984588     35.969176
     -1.806807     16.913166     16.913166     33.826331
     -1.796797     16.030848     16.030848     32.061695
     -1.786787     15.311609     15.311609     30.623219
     -1.776777     14.600128     14.600128     29.200257
     -1.766767     13.722123     13.722123     27.444245
     -1.756757     12.608411     12.608411     25.216822
     -1.746747     11.365142     11.365142     22.730284
     -1.736737     10.249983     10.249983     20.499965
     -1.726727      9.564991      9.564991     19.129981
     -1.716717      9.520765      9.520765     19.041530
     -1.706707     10.139739     10.139739     20.279477
     -1.696697     11.244935     11.244935     22.489871
     -1.686687     12.537018     12.537018     25.074036
     -1.676677     13.718168     13.718168     27.436336
     -1.666667     14.597825     14.597825     29.195650
     -1.656657     15.126641     15.126641     30.253281
     -1.646647     15.348191     15.348191     30.696381
     -1.636637     15.309180     15.309180     30.618359
     -1.626627     14.994713     14.994713     29.989425
