# EIG2DOS: Utility for SIESTA to obtain the electronic density of states
#  E. Artacho, Apr 1999, A. Garcia, Apr 2012
#  Nick R. Papior, Feb 2017
# ------------------------------------------
# Eigenvalues calculated from a non-polarized calculation
# Eigenvalues read from siesta.EIG
# Kpoint weights read from siesta.KP
# Using smearing parameter:   0.0500
# Using 1000 points in the energy range
# Selected bands: 1 to: 2981
# Emin, Emax in file for selected band(s):    -27.0546640    218.3085820
# Nbands, Nspin, Nk   =   2981     1     1
# E_F                 =    -4.3101 eV --> (shifted to ZERO)
# Broadening          =     0.0500 eV
#
#        E            N(up)  (=)   N(down)         Ntot
     -5.000000     46.714727     46.714727     93.429455
     -4.989990     49.172181     49.172181     98.344362
     -4.979980     50.042794     50.042794    100.085587
     -4.969970     49.396382     49.396382     98.792764
     -4.959960     47.478497     47.478497     94.956994
     -4.949950     44.627510     44.627510     89.255021
     -4.939940     41.212948     41.212948     82.425896
     -4.929930     37.620009     37.620009     75.240019
     -4.919920     34.273722     34.273722     68.547444
     -4.909910     31.669614     31.669614     63.339227
     -4.899900     30.365298     30.365298     60.730597
     -4.889890     30.893441     30.893441     61.786882
     -4.879880     33.587289     33.587289     67.174579
     -4.869870     38.365266     38.365266     76.730533
     -4.859860     44.578489     44.578489     89.156977
     -4.849850     51.040048     51.040048    102.080096
     -4.839840     56.292809     56.292809    112.585618
     -4.829830     59.048545     59.048545    118.097089
     -4.819820     58.617423     58.617423    117.234845
     -4.809810     55.126289     55.126289    110.252578
     -4.799800     49.424111     49.424111     98.848223
     -4.789790     42.734916     42.734916     85.469833
     -4.779780     36.237954     36.237954     72.475907
     -4.769770     30.760280     30.760280     61.520561
     -4.759760     26.671653     26.671653     53.343306
     -4.749750     23.953561     23.953561     47.907122
     -4.739740     22.348611     22.348611     44.697223
     -4.729730     21.502856     21.502856     43.005713
     -4.719720     21.059336     21.059336     42.118672
     -4.709710     20.703424     20.703424     41.406848
     -4.699700     20.180663     20.180663     40.361325
     -4.689690     19.310126     19.310126     38.620252
     -4.679680     18.009482     18.009482     36.018964
     -4.669670     16.334490     16.334490     32.668980
     -4.659660     14.518477     14.518477     29.036954
     -4.649650     12.984873     12.984873     25.969746
     -4.639640     12.306701     12.306701     24.613402
     -4.629630     13.101182     13.101182     26.202365
     -4.619620     15.868469     15.868469     31.736938
     -4.609610     20.805854     20.805854     41.611708
     -4.599600     27.651173     27.651173     55.302347
     -4.589590     35.625055     35.625055     71.250110
     -4.579580     43.533858     43.533858     87.067716
     -4.569570     50.047314     50.047314    100.094628
     -4.559560     54.084636     54.084636    108.169271
     -4.549550     55.170054     55.170054    110.340108
     -4.539540     53.604096     53.604096    107.208191
     -4.529530     50.362855     50.362855    100.725711
     -4.519520     46.756101     46.756101     93.512202
     -4.509510     43.982815     43.982815     87.965631
     -4.499499     42.762093     42.762093     85.524187
     -4.489489     43.171901     43.171901     86.343801
     -4.479479     44.728577     44.728577     89.457153
     -4.469469     46.640047     46.640047     93.280095
     -4.459459     48.110370     48.110370     96.220741
     -4.449449     48.577923     48.577923     97.155846
     -4.439439     47.820285     47.820285     95.640571
     -4.429429     45.925767     45.925767     91.851533
     -4.419419     43.184327     43.184327     86.368654
     -4.409409     39.968968     39.968968     79.937936
     -4.399399     36.658395     36.658395     73.316790
     -4.389389     33.607931     33.607931     67.215861
     -4.379379     31.137553     31.137553     62.275107
     -4.369369     29.500017     29.500017     59.000033
     -4.359359     28.821756     28.821756     57.643512
     -4.349349     29.049471     29.049471     58.098942
     -4.339339     29.950528     29.950528     59.901056
     -4.329329     31.189723     31.189723     62.379446
     -4.319319     32.456468     32.456468     64.912935
     -4.309309     33.581958     33.581958     67.163916
     -4.299299     34.590019     34.590019     69.180039
     -4.289289     35.661184     35.661184     71.322368
     -4.279279     37.029120     37.029120     74.058241
     -4.269269     38.849536     38.849536     77.699072
     -4.259259     41.084394     41.084394     82.168788
     -4.249249     43.441700     43.441700     86.883399
     -4.239239     45.406567     45.406567     90.813134
     -4.229229     46.379365     46.379365     92.758731
     -4.219219     45.890752     45.890752     91.781505
     -4.209209     43.808395     43.808395     87.616789
     -4.199199     40.428647     40.428647     80.857295
     -4.189189     36.390344     36.390344     72.780688
     -4.179179     32.441737     32.441737     64.883474
     -4.169169     29.175703     29.175703     58.351406
     -4.159159     26.864375     26.864375     53.728749
     -4.149149     25.462809     25.462809     50.925618
     -4.139139     24.756019     24.756019     49.512038
     -4.129129     24.553454     24.553454     49.106907
     -4.119119     24.822046     24.822046     49.644092
     -4.109109     25.688577     25.688577     51.377154
     -4.099099     27.309951     27.309951     54.619902
     -4.089089     29.679103     29.679103     59.358205
     -4.079079     32.477554     32.477554     64.955109
     -4.069069     35.077192     35.077192     70.154383
     -4.059059     36.724290     36.724290     73.448580
     -4.049049     36.835618     36.835618     73.671237
     -4.039039     35.260205     35.260205     70.520410
     -4.029029     32.366912     32.366912     64.733824
     -4.019019     28.911698     28.911698     57.823396
     -4.009009     25.761267     25.761267     51.522534
     -3.998999     23.620681     23.620681     47.241362
     -3.988989     22.888127     22.888127     45.776253
     -3.978979     23.665686     23.665686     47.331371
     -3.968969     25.861966     25.861966     51.723932
     -3.958959     29.292146     29.292146     58.584292
     -3.948949     33.721561     33.721561     67.443122
     -3.938939     38.866089     38.866089     77.732179
     -3.928929     44.399401     44.399401     88.798802
     -3.918919     49.999102     49.999102     99.998205
     -3.908909     55.413363     55.413363    110.826726
     -3.898899     60.493426     60.493426    120.986852
     -3.888889     65.147703     65.147703    130.295405
     -3.878879     69.225219     69.225219    138.450438
     -3.868869     72.394591     72.394591    144.789182
     -3.858859     74.108681     74.108681    148.217362
     -3.848849     73.713566     73.713566    147.427133
     -3.838839     70.685091     70.685091    141.370181
     -3.828829     64.897057     64.897057    129.794114
     -3.818819     56.790168     56.790168    113.580336
     -3.808809     47.346080     47.346080     94.692160
     -3.798799     37.860433     37.860433     75.720866
     -3.788789     29.601577     29.601577     59.203154
     -3.778779     23.486502     23.486502     46.973003
     -3.768769     19.884230     19.884230     39.768460
     -3.758759     18.592778     18.592778     37.185556
     -3.748749     18.969752     18.969752     37.939504
     -3.738739     20.157391     20.157391     40.314781
     -3.728729     21.333951     21.333951     42.667901
     -3.718719     21.931996     21.931996     43.863992
     -3.708709     21.777781     21.777781     43.555562
     -3.698699     21.120718     21.120718     42.241436
     -3.688689     20.541160     20.541160     41.082321
     -3.678679     20.752100     20.752100     41.504199
     -3.668669     22.343838     22.343838     44.687677
     -3.658659     25.549811     25.549811     51.099621
     -3.648649     30.119458     30.119458     60.238915
     -3.638639     35.355973     35.355973     70.711946
     -3.628629     40.314431     40.314431     80.628861
     -3.618619     44.085094     44.085094     88.170189
     -3.608609     46.047607     46.047607     92.095214
     -3.598599     46.001196     46.001196     92.002391
     -3.588589     44.143383     44.143383     88.286767
     -3.578579     40.940674     40.940674     81.881348
     -3.568569     36.965557     36.965557     73.931114
     -3.558559     32.756709     32.756709     65.513417
     -3.548549     28.722840     28.722840     57.445680
     -3.538539     25.090043     25.090043     50.180086
     -3.528529     21.894873     21.894873     43.789746
     -3.518519     19.030109     19.030109     38.060218
     -3.508509     16.337008     16.337008     32.674016
     -3.498498     13.711840     13.711840     27.423679
     -3.488488     11.179880     11.179880     22.359760
     -3.478478      8.903735      8.903735     17.807470
     -3.468468      7.126574      7.126574     14.253147
     -3.458458      6.080191      6.080191     12.160381
     -3.448448      5.895804      5.895804     11.791609
     -3.438438      6.545528      6.545528     13.091056
     -3.428428      7.829226      7.829226     15.658451
     -3.418418      9.413233      9.413233     18.826466
     -3.408408     10.919144     10.919144     21.838288
     -3.398398     12.044521     12.044521     24.089041
     -3.388388     12.676406     12.676406     25.352811
     -3.378378     12.949088     12.949088     25.898177
     -3.368368     13.214090     13.214090     26.428181
     -3.358358     13.928783     13.928783     27.857565
     -3.348348     15.507265     15.507265     31.014530
     -3.338338     18.188295     18.188295     36.376589
     -3.328328     21.955280     21.955280     43.910560
     -3.318318     26.512517     26.512517     53.025033
     -3.308308     31.307111     31.307111     62.614223
     -3.298298     35.595709     35.595709     71.191419
     -3.288288     38.569126     38.569126     77.138253
     -3.278278     39.536838     39.536838     79.073676
     -3.268268     38.131183     38.131183     76.262367
     -3.258258     34.449442     34.449442     68.898884
     -3.248248     29.054395     29.054395     58.108790
     -3.238238     22.814179     22.814179     45.628359
     -3.228228     16.644876     16.644876     33.289752
     -3.218218     11.267501     11.267501     22.535002
     -3.208208      7.073638      7.073638     14.147277
     -3.198198      4.128696      4.128696      8.257392
     -3.188188      2.275830      2.275830      4.551661
     -3.178178      1.274111      1.274111      2.548222
     -3.168168      0.915655      0.915655      1.831309
     -3.158158      1.096626      1.096626      2.193253
     -3.148148      1.841545      1.841545      3.683090
     -3.138138      3.288744      3.288744      6.577489
     -3.128128      5.642106      5.642106     11.284212
     -3.118118      9.092237      9.092237     18.184474
     -3.108108     13.717327     13.717327     27.434655
     -3.098098     19.388725     19.388725     38.777449
     -3.088088     25.718419     25.718419     51.436838
     -3.078078     32.082380     32.082380     64.164759
     -3.068068     37.729472     37.729472     75.458944
     -3.058058     41.948812     41.948812     83.897624
     -3.048048     44.238587     44.238587     88.477174
     -3.038038     44.416026     44.416026     88.832052
     -3.028028     42.635711     42.635711     85.271422
     -3.018018     39.325922     39.325922     78.651844
     -3.008008     35.083675     35.083675     70.167349
     -2.997998     30.570952     30.570952     61.141904
     -2.987988     26.432304     26.432304     52.864609
     -2.977978     23.229916     23.229916     46.459832
     -2.967968     21.386175     21.386175     42.772350
     -2.957958     21.135574     21.135574     42.271147
     -2.947948     22.499574     22.499574     44.999147
     -2.937938     25.294147     25.294147     50.588294
     -2.927928     29.163268     29.163268     58.326537
     -2.917918     33.621388     33.621388     67.242776
     -2.907908     38.096935     38.096935     76.193871
     -2.897898     41.988574     41.988574     83.977149
     -2.887888     44.752450     44.752450     89.504899
     -2.877878     46.017733     46.017733     92.035465
     -2.867868     45.691805     45.691805     91.383610
     -2.857858     43.996697     43.996697     87.993395
     -2.847848     41.398146     41.398146     82.796292
     -2.837838     38.441631     38.441631     76.883262
     -2.827828     35.563545     35.563545     71.127091
     -2.817818     32.964677     32.964677     65.929353
     -2.807808     30.603529     30.603529     61.207057
     -2.797798     28.304689     28.304689     56.609378
     -2.787788     25.917658     25.917658     51.835317
     -2.777778     23.437766     23.437766     46.875531
     -2.767768     21.026063     21.026063     42.052126
     -2.757758     18.925128     18.925128     37.850256
     -2.747748     17.328383     17.328383     34.656766
     -2.737738     16.286522     16.286522     32.573044
     -2.727728     15.709597     15.709597     31.419195
     -2.717718     15.461301     15.461301     30.922602
     -2.707708     15.480888     15.480888     30.961775
     -2.697698     15.847590     15.847590     31.695180
     -2.687688     16.737609     16.737609     33.475218
     -2.677678     18.294271     18.294271     36.588542
     -2.667668     20.492641     20.492641     40.985281
     -2.657658     23.089680     23.089680     46.179360
     -2.647648     25.700517     25.700517     51.401033
     -2.637638     27.961181     27.961181     55.922362
     -2.627628     29.681209     29.681209     59.362418
     -2.617618     30.895859     30.895859     61.791718
     -2.607608     31.794406     31.794406     63.588811
     -2.597598     32.580742     32.580742     65.161484
     -2.587588     33.357583     33.357583     66.715166
     -2.577578     34.093105     34.093105     68.186210
     -2.567568     34.660549     34.660549     69.321098
     -2.557558     34.896051     34.896051     69.792103
     -2.547548     34.631807     34.631807     69.263614
     -2.537538     33.710525     33.710525     67.421049
     -2.527528     32.019710     32.019710     64.039420
     -2.517518     29.566316     29.566316     59.132631
     -2.507508     26.560391     26.560391     53.120782
     -2.497497     23.441067     23.441067     46.882133
     -2.487487     20.795958     20.795958     41.591917
     -2.477477     19.186679     19.186679     38.373358
     -2.467467     18.954546     18.954546     37.909091
     -2.457457     20.100249     20.100249     40.200498
     -2.447447     22.298304     22.298304     44.596609
     -2.437437     25.042150     25.042150     50.084301
     -2.427427     27.853113     27.853113     55.706225
     -2.417417     30.455686     30.455686     60.911371
     -2.407407     32.836652     32.836652     65.673304
     -2.397397     35.160234     35.160234     70.320468
     -2.387387     37.581357     37.581357     75.162714
     -2.377377     40.051451     40.051451     80.102902
     -2.367367     42.220164     42.220164     84.440329
     -2.357357     43.495452     43.495452     86.990903
     -2.347347     43.250421     43.250421     86.500842
     -2.337337     41.091961     41.091961     82.183922
     -2.327327     37.070481     37.070481     74.140962
     -2.317317     31.733405     31.733405     63.466810
     -2.307307     25.997442     25.997442     51.994883
     -2.297297     20.896790     20.896790     41.793580
     -2.287287     17.311424     17.311424     34.622848
     -2.277277     15.770998     15.770998     31.541996
     -2.267267     16.381575     16.381575     32.763151
     -2.257257     18.868944     18.868944     37.737888
     -2.247247     22.699231     22.699231     45.398463
     -2.237237     27.227879     27.227879     54.455758
     -2.227227     31.832103     31.832103     63.664206
     -2.217217     35.993779     35.993779     71.987558
     -2.207207     39.320709     39.320709     78.641417
     -2.197197     41.523404     41.523404     83.046808
     -2.187187     42.388542     42.388542     84.777084
     -2.177177     41.789768     41.789768     83.579536
     -2.167167     39.744114     39.744114     79.488228
     -2.157157     36.475861     36.475861     72.951722
     -2.147147     32.424529     32.424529     64.849059
     -2.137137     28.155701     28.155701     56.311401
     -2.127127     24.194097     24.194097     48.388193
     -2.117117     20.856489     20.856489     41.712978
     -2.107107     18.173257     18.173257     36.346515
     -2.097097     15.939974     15.939974     31.879949
     -2.087087     13.865682     13.865682     27.731363
     -2.077077     11.733160     11.733160     23.466319
     -2.067067      9.490246      9.490246     18.980492
     -2.057057      7.241412      7.241412     14.482824
     -2.047047      5.167258      5.167258     10.334516
     -2.037037      3.429614      3.429614      6.859228
     -2.027027      2.110818      2.110818      4.221636
     -2.017017      1.203710      1.203710      2.407419
     -2.007007      0.639314      0.639314      1.278628
     -1.996997      0.327464      0.327464      0.654928
     -1.986987      0.191050      0.191050      0.382101
     -1.976977      0.186815      0.186815      0.373630
     -1.966967      0.314721      0.314721      0.629441
     -1.956957      0.619879      0.619879      1.239758
     -1.946947      1.187593      1.187593      2.375187
     -1.936937      2.127830      2.127830      4.255660
     -1.926927      3.545128      3.545128      7.090256
     -1.916917      5.495797      5.495797     10.991594
     -1.906907      7.944161      7.944161     15.888323
     -1.896897     10.737005     10.737005     21.474011
     -1.886887     13.613211     13.613211     27.226422
     -1.876877     16.252344     16.252344     32.504687
     -1.866867     18.348687     18.348687     36.697375
     -1.856857     19.686506     19.686506     39.373011
     -1.846847     20.193194     20.193194     40.386389
     -1.836837     19.955272     19.955272     39.910544
     -1.826827     19.190843     19.190843     38.381687
     -1.816817     18.180619     18.180619     36.361239
     -1.806807     17.172631     17.172631     34.345261
     -1.796797     16.293084     16.293084     32.586168
     -1.786787     15.504897     15.504897     31.009794
     -1.776777     14.641230     14.641230     29.282459
     -1.766767     13.504150     13.504150     27.008300
     -1.756757     11.980665     11.980665     23.961329
     -1.746747     10.117637     10.117637     20.235275
     -1.736737      8.122800      8.122800     16.245599
     -1.726727      6.302396      6.302396     12.604793
     -1.716717      4.975905      4.975905      9.951810
     -1.706707      4.406849      4.406849      8.813698
     -1.696697      4.763697      4.763697      9.527394
     -1.686687      6.099853      6.099853     12.199705
     -1.676677      8.335989      8.335989     16.671978
     -1.666667     11.242338     11.242338     22.484676
     -1.656657     14.437821     14.437821     28.875642
     -1.646647     17.429295     17.429295     34.858590
     -1.636637     19.700473     19.700473     39.400946
     -1.626627     20.834083     20.834083     41.668165
