# EIG2DOS: Utility for SIESTA to obtain the electronic density of states
#  E. Artacho, Apr 1999, A. Garcia, Apr 2012
#  Nick R. Papior, Feb 2017
# ------------------------------------------
# Eigenvalues calculated from a non-polarized calculation
# Eigenvalues read from siesta.EIG
# Kpoint weights read from siesta.KP
# Using smearing parameter:   0.0500
# Using 1000 points in the energy range
# Selected bands: 1 to: 2981
# Emin, Emax in file for selected band(s):    -27.2869979    218.3794260
# Nbands, Nspin, Nk   =   2981     1     1
# E_F                 =    -4.2250 eV --> (shifted to ZERO)
# Broadening          =     0.0500 eV
#
#        E            N(up)  (=)   N(down)         Ntot
     -5.000000     29.978572     29.978572     59.957144
     -4.989990     34.473981     34.473981     68.947963
     -4.979980     38.994390     38.994390     77.988780
     -4.969970     42.865517     42.865517     85.731035
     -4.959960     45.396040     45.396040     90.792080
     -4.949950     46.097055     46.097055     92.194111
     -4.939940     44.855647     44.855647     89.711293
     -4.929930     41.997370     41.997370     83.994740
     -4.919920     38.225123     38.225123     76.450245
     -4.909910     34.470009     34.470009     68.940018
     -4.899900     31.704676     31.704676     63.409351
     -4.889890     30.752104     30.752104     61.504209
     -4.879880     32.102763     32.102763     64.205525
     -4.869870     35.759173     35.759173     71.518346
     -4.859860     41.156307     41.156307     82.312614
     -4.849850     47.222817     47.222817     94.445635
     -4.839840     52.616371     52.616371    105.232742
     -4.829830     56.087684     56.087684    112.175367
     -4.819820     56.847560     56.847560    113.695121
     -4.809810     54.787246     54.787246    109.574491
     -4.799800     50.460526     50.460526    100.921052
     -4.789790     44.847302     44.847302     89.694605
     -4.779780     39.016774     39.016774     78.033549
     -4.769770     33.837098     33.837098     67.674196
     -4.759760     29.828412     29.828412     59.656824
     -4.749750     27.168205     27.168205     54.336410
     -4.739740     25.788253     25.788253     51.576505
     -4.729730     25.483020     25.483020     50.966041
     -4.719720     25.975546     25.975546     51.951092
     -4.709710     26.932341     26.932341     53.864682
     -4.699700     27.958024     27.958024     55.916048
     -4.689690     28.616788     28.616788     57.233577
     -4.679680     28.513825     28.513825     57.027649
     -4.669670     27.429624     27.429624     54.859248
     -4.659660     25.454486     25.454486     50.908972
     -4.649650     23.049360     23.049360     46.098721
     -4.639640     20.980210     20.980210     41.960420
     -4.629630     20.126175     20.126175     40.252349
     -4.619620     21.216514     21.216514     42.433027
     -4.609610     24.581055     24.581055     49.162109
     -4.599600     29.997114     29.997114     59.994229
     -4.589590     36.690590     36.690590     73.381179
     -4.579580     43.508081     43.508081     87.016162
     -4.569570     49.224943     49.224943     98.449886
     -4.559560     52.901020     52.901020    105.802040
     -4.549550     54.163215     54.163215    108.326429
     -4.539540     53.305378     53.305378    106.610756
     -4.529530     51.157641     51.157641    102.315282
     -4.519520     48.768064     48.768064     97.536128
     -4.509510     47.018750     47.018750     94.037501
     -4.499499     46.327454     46.327454     92.654908
     -4.489489     46.548006     46.548006     93.096011
     -4.479479     47.094907     47.094907     94.189813
     -4.469469     47.221028     47.221028     94.442056
     -4.459459     46.319030     46.319030     92.638060
     -4.449449     44.123043     44.123043     88.246085
     -4.439439     40.749515     40.749515     81.499029
     -4.429429     36.598234     36.598234     73.196468
     -4.419419     32.192214     32.192214     64.384429
     -4.409409     28.041033     28.041033     56.082065
     -4.399399     24.570608     24.570608     49.141215
     -4.389389     22.105992     22.105992     44.211985
     -4.379379     20.862406     20.862406     41.724812
     -4.369369     20.912863     20.912863     41.825726
     -4.359359     22.143190     22.143190     44.286379
     -4.349349     24.239247     24.239247     48.478495
     -4.339339     26.746858     26.746858     53.493717
     -4.329329     29.203792     29.203792     58.407583
     -4.319319     31.295136     31.295136     62.590272
     -4.309309     32.961720     32.961720     65.923440
     -4.299299     34.407807     34.407807     68.815614
     -4.289289     35.996030     35.996030     71.992061
     -4.279279     38.062196     38.062196     76.124392
     -4.269269     40.715411     40.715411     81.430822
     -4.259259     43.703873     43.703873     87.407747
     -4.249249     46.417308     46.417308     92.834616
     -4.239239     48.054934     48.054934     96.109868
     -4.229229     47.916165     47.916165     95.832329
     -4.219219     45.699171     45.699171     91.398342
     -4.209209     41.666510     41.666510     83.333020
     -4.199199     36.587259     36.587259     73.174518
     -4.189189     31.473504     31.473504     62.947008
     -4.179179     27.233621     27.233621     54.467243
     -4.169169     24.401618     24.401618     48.803235
     -4.159159     23.051511     23.051511     46.103021
     -4.149149     22.904814     22.904814     45.809627
     -4.139139     23.549353     23.549353     47.098706
     -4.129129     24.652203     24.652203     49.304406
     -4.119119     26.072246     26.072246     52.144491
     -4.109109     27.834748     27.834748     55.669497
     -4.099099     29.993684     29.993684     59.987367
     -4.089089     32.458040     32.458040     64.916081
     -4.079079     34.880801     34.880801     69.761603
     -4.069069     36.688936     36.688936     73.377871
     -4.059059     37.267003     37.267003     74.534007
     -4.049049     36.221100     36.221100     72.442200
     -4.039039     33.593265     33.593265     67.186531
     -4.029029     29.910824     29.910824     59.821648
     -4.019019     26.038708     26.038708     52.077416
     -4.009009     22.905733     22.905733     45.811465
     -3.998999     21.234181     21.234181     42.468361
     -3.988989     21.383899     21.383899     42.767798
     -3.978979     23.347208     23.347208     46.694416
     -3.968969     26.852248     26.852248     53.704496
     -3.958959     31.496742     31.496742     62.993484
     -3.948949     36.852363     36.852363     73.704725
     -3.938939     42.525360     42.525360     85.050720
     -3.928929     48.191751     48.191751     96.383502
     -3.918919     53.623454     53.623454    107.246909
     -3.908909     58.696652     58.696652    117.393304
     -3.898899     63.357227     63.357227    126.714454
     -3.888889     67.533245     67.533245    135.066490
     -3.878879     71.024425     71.024425    142.048849
     -3.868869     73.432505     73.432505    146.865011
     -3.858859     74.194541     74.194541    148.389082
     -3.848849     72.737099     72.737099    145.474198
     -3.838839     68.705046     68.705046    137.410093
     -3.828829     62.170045     62.170045    124.340090
     -3.818819     53.719996     53.719996    107.439993
     -3.808809     44.376496     44.376496     88.752991
     -3.798799     35.360421     35.360421     70.720842
     -3.788789     27.788625     27.788625     55.577250
     -3.778779     22.407143     22.407143     44.814286
     -3.768769     19.442872     19.442872     38.885744
     -3.758759     18.605302     18.605302     37.210604
     -3.748749     19.220095     19.220095     38.440190
     -3.738739     20.445118     20.445118     40.890235
     -3.728729     21.509196     21.509196     43.018392
     -3.718719     21.917242     21.917242     43.834485
     -3.708709     21.575526     21.575526     43.151052
     -3.698699     20.805760     20.805760     41.611521
     -3.688689     20.237964     20.237964     40.475928
     -3.678679     20.600965     20.600965     41.201929
     -3.668669     22.462836     22.462836     44.925672
     -3.658659     26.001159     26.001159     52.002318
     -3.648649     30.888591     30.888591     61.777181
     -3.638639     36.348939     36.348939     72.697877
     -3.628629     41.374872     41.374872     82.749745
     -3.618619     45.027011     45.027011     90.054021
     -3.608609     46.695905     46.695905     93.391810
     -3.598599     46.230050     46.230050     92.460100
     -3.588589     43.903000     43.903000     87.806001
     -3.578579     40.265827     40.265827     80.531654
     -3.568569     35.963684     35.963684     71.927368
     -3.558559     31.578885     31.578885     63.157770
     -3.548549     27.526286     27.526286     55.052571
     -3.538539     24.003705     24.003705     48.007411
     -3.528529     20.998095     20.998095     41.996190
     -3.518519     18.348660     18.348660     36.697320
     -3.508509     15.853674     15.853674     31.707349
     -3.498498     13.384061     13.384061     26.768121
     -3.488488     10.956615     10.956615     21.913229
     -3.478478      8.737142      8.737142     17.474284
     -3.468468      6.978657      6.978657     13.957315
     -3.458458      5.927757      5.927757     11.855514
     -3.448448      5.737783      5.737783     11.475565
     -3.438438      6.415248      6.415248     12.830496
     -3.428428      7.811696      7.811696     15.623391
     -3.418418      9.664655      9.664655     19.329311
     -3.408408     11.682770     11.682770     23.365540
     -3.398398     13.653177     13.653177     27.306354
     -3.388388     15.528637     15.528637     31.057274
     -3.378378     17.446833     17.446833     34.893666
     -3.368368     19.660456     19.660456     39.320913
     -3.358358     22.405991     22.405991     44.811981
     -3.348348     25.778247     25.778247     51.556494
     -3.338338     29.673590     29.673590     59.347179
     -3.328328     33.815943     33.815943     67.631886
     -3.318318     37.824180     37.824180     75.648360
     -3.308308     41.264982     41.264982     82.529963
     -3.298298     43.674588     43.674588     87.349176
     -3.288288     44.587400     44.587400     89.174799
     -3.278278     43.621980     43.621980     87.243960
     -3.268268     40.625671     40.625671     81.251342
     -3.258258     35.808769     35.808769     71.617538
     -3.248248     29.774109     29.774109     59.548219
     -3.238238     23.396677     23.396677     46.793354
     -3.228228     17.594536     17.594536     35.189072
     -3.218218     13.090649     13.090649     26.181298
     -3.208208     10.257869     10.257869     20.515737
     -3.198198      9.084886      9.084886     18.169772
     -3.188188      9.246615      9.246615     18.493231
     -3.178178     10.239339     10.239339     20.478678
     -3.168168     11.543378     11.543378     23.086756
     -3.158158     12.780333     12.780333     25.560665
     -3.148148     13.826333     13.826333     27.652667
     -3.138138     14.838826     14.838826     29.677651
     -3.128128     16.171642     16.171642     32.343284
     -3.118118     18.195749     18.195749     36.391499
     -3.108108     21.091827     21.091827     42.183655
     -3.098098     24.705753     24.705753     49.411507
     -3.088088     28.539499     28.539499     57.078998
     -3.078078     31.892108     31.892108     63.784217
     -3.068068     34.094863     34.094863     68.189726
     -3.058058     34.737335     34.737335     69.474671
     -3.048048     33.783721     33.783721     67.567443
     -3.038038     31.533918     31.533918     63.067837
     -3.028028     28.463532     28.463532     56.927065
     -3.018018     25.036308     25.036308     50.072616
     -3.008008     21.586267     21.586267     43.172534
     -2.997998     18.314757     18.314757     36.629514
     -2.987988     15.375494     15.375494     30.750988
     -2.977978     12.974709     12.974709     25.949418
     -2.967968     11.416907     11.416907     22.833814
     -2.957958     11.067109     11.067109     22.134219
     -2.947948     12.245933     12.245933     24.491865
     -2.937938     15.100600     15.100600     30.201200
     -2.927928     19.499986     19.499986     38.999973
     -2.917918     24.994094     24.994094     49.988188
     -2.907908     30.863647     30.863647     61.727294
     -2.897898     36.261671     36.261671     72.523342
     -2.887888     40.415637     40.415637     80.831273
     -2.877878     42.826649     42.826649     85.653298
     -2.867868     43.390470     43.390470     86.780940
     -2.857858     42.387794     42.387794     84.775589
     -2.847848     40.343737     40.343737     80.687474
     -2.837838     37.815250     37.815250     75.630500
     -2.827828     35.199304     35.199304     70.398608
     -2.817818     32.644109     32.644109     65.288219
     -2.807808     30.093587     30.093587     60.187173
     -2.797798     27.427975     27.427975     54.855950
     -2.787788     24.616517     24.616517     49.233034
     -2.777778     21.797072     21.797072     43.594144
     -2.767768     19.242711     19.242711     38.485423
     -2.757758     17.241457     17.241457     34.482915
     -2.747748     15.964844     15.964844     31.929688
     -2.737738     15.405211     15.405211     30.810422
     -2.727728     15.417531     15.417531     30.835063
     -2.717718     15.834817     15.834817     31.669634
     -2.707708     16.577935     16.577935     33.155870
     -2.697698     17.683405     17.683405     35.366809
     -2.687688     19.227872     19.227872     38.455743
     -2.677678     21.201310     21.201310     42.402620
     -2.667668     23.422486     23.422486     46.844972
     -2.657658     25.567627     25.567627     51.135255
     -2.647648     27.307835     27.307835     54.615670
     -2.637638     28.473368     28.473368     56.946737
     -2.627628     29.139396     29.139396     58.278792
     -2.617618     29.577121     29.577121     59.154243
     -2.607608     30.101782     30.101782     60.203563
     -2.597598     30.911458     30.911458     61.822916
     -2.587588     32.004751     32.004751     64.009502
     -2.577578     33.201781     33.201781     66.403562
     -2.567568     34.225824     34.225824     68.451648
     -2.557558     34.783113     34.783113     69.566225
     -2.547548     34.611968     34.611968     69.223936
     -2.537538     33.519257     33.519257     67.038513
     -2.527528     31.435404     31.435404     62.870808
     -2.517518     28.487957     28.487957     56.975914
     -2.507508     25.050444     25.050444     50.100888
     -2.497497     21.711486     21.711486     43.422972
     -2.487487     19.143760     19.143760     38.287520
     -2.477477     17.909978     17.909978     35.819956
     -2.467467     18.284198     18.284198     36.568396
     -2.457457     20.166965     20.166965     40.333931
     -2.447447     23.133936     23.133936     46.267873
     -2.437437     26.599979     26.599979     53.199958
     -2.427427     30.029584     30.029584     60.059168
     -2.417417     33.101727     33.101727     66.203454
     -2.407407     35.755674     35.755674     71.511349
     -2.397397     38.099412     38.099412     76.198825
     -2.387387     40.230420     40.230420     80.460840
     -2.377377     42.065312     42.065312     84.130624
     -2.367367     43.274365     43.274365     86.548730
     -2.357357     43.366769     43.366769     86.733537
     -2.347347     41.896207     41.896207     83.792414
     -2.337337     38.692633     38.692633     77.385266
     -2.327327     34.008939     34.008939     68.017879
     -2.317317     28.511057     28.511057     57.022115
     -2.307307     23.115185     23.115185     46.230369
     -2.297297     18.744054     18.744054     37.488109
     -2.287287     16.099582     16.099582     32.199164
     -2.277277     15.525317     15.525317     31.050634
     -2.267267     16.982026     16.982026     33.964052
     -2.257257     20.115103     20.115103     40.230206
     -2.247247     24.371178     24.371178     48.742356
     -2.237237     29.121715     29.121715     58.243430
     -2.227227     33.763002     33.763002     67.526003
     -2.217217     37.777161     37.777161     75.554322
     -2.207207     40.755490     40.755490     81.510981
     -2.197197     42.401292     42.401292     84.802584
     -2.187187     42.537330     42.537330     85.074661
     -2.177177     41.134633     41.134633     82.269266
     -2.167167     38.354017     38.354017     76.708034
     -2.157157     34.564220     34.564220     69.128440
     -2.147147     30.294614     30.294614     60.589228
     -2.137137     26.110073     26.110073     52.220147
     -2.127127     22.447419     22.447419     44.894839
     -2.117117     19.490538     19.490538     38.981075
     -2.107107     17.152430     17.152430     34.304859
     -2.097097     15.177012     15.177012     30.354025
     -2.087087     13.306856     13.306856     26.613712
     -2.077077     11.429424     11.429424     22.858847
     -2.067067      9.633021      9.633021     19.266042
     -2.057057      8.156959      8.156959     16.313917
     -2.047047      7.271815      7.271815     14.543631
     -2.037037      7.148571      7.148571     14.297143
     -2.027027      7.768179      7.768179     15.536359
     -2.017017      8.900884      8.900884     17.801768
     -2.007007     10.160720     10.160720     20.321439
     -1.996997     11.118666     11.118666     22.237332
     -1.986987     11.438113     11.438113     22.876227
     -1.976977     10.984706     10.984706     21.969412
     -1.966967      9.869346      9.869346     19.738692
     -1.956957      8.410229      8.410229     16.820457
     -1.946947      7.034060      7.034060     14.068119
     -1.936937      6.157812      6.157812     12.315623
     -1.926927      6.089708      6.089708     12.179416
     -1.916917      6.968963      6.968963     13.937927
     -1.906907      8.745242      8.745242     17.490484
     -1.896897     11.191888     11.191888     22.383776
     -1.886887     13.948871     13.948871     27.897741
     -1.876877     16.592124     16.592124     33.184249
     -1.866867     18.720323     18.720323     37.440647
     -1.856857     20.041884     20.041884     40.083769
     -1.846847     20.440632     20.440632     40.881264
     -1.836837     20.000502     20.000502     40.001003
     -1.826827     18.976721     18.976721     37.953441
     -1.816817     17.713314     17.713314     35.426628
     -1.806807     16.525886     16.525886     33.051771
     -1.796797     15.589730     15.589730     31.179459
     -1.786787     14.882337     14.882337     29.764674
     -1.776777     14.212228     14.212228     28.424455
     -1.766767     13.324850     13.324850     26.649701
     -1.756757     12.034144     12.034144     24.068288
     -1.746747     10.314154     10.314154     20.628307
     -1.736737      8.310076      8.310076     16.620151
     -1.726727      6.275340      6.275340     12.550680
     -1.716717      4.479005      4.479005      8.958009
     -1.706707      3.133445      3.133445      6.266890
     -1.696697      2.367895      2.367895      4.735789
     -1.686687      2.239600      2.239600      4.479201
     -1.676677      2.753657      2.753657      5.507314
     -1.666667      3.865130      3.865130      7.730260
     -1.656657      5.457979      5.457979     10.915958
     -1.646647      7.320106      7.320106     14.640212
     -1.636637      9.146612      9.146612     18.293223
     -1.626627     10.594300     10.594300     21.188599
