# EIG2DOS: Utility for SIESTA to obtain the electronic density of states
#  E. Artacho, Apr 1999, A. Garcia, Apr 2012
#  Nick R. Papior, Feb 2017
# ------------------------------------------
# Eigenvalues calculated from a non-polarized calculation
# Eigenvalues read from siesta.EIG
# Kpoint weights read from siesta.KP
# Using smearing parameter:   0.0500
# Using 1000 points in the energy range
# Selected bands: 1 to: 2981
# Emin, Emax in file for selected band(s):    -27.2860300    218.3788820
# Nbands, Nspin, Nk   =   2981     1     1
# E_F                 =    -4.2188 eV --> (shifted to ZERO)
# Broadening          =     0.0500 eV
#
#        E            N(up)  (=)   N(down)         Ntot
     -5.000000     31.420672     31.420672     62.841345
     -4.989990     36.174674     36.174674     72.349348
     -4.979980     40.703252     40.703252     81.406504
     -4.969970     44.265116     44.265116     88.530232
     -4.959960     46.203385     46.203385     92.406770
     -4.949950     46.161514     46.161514     92.323028
     -4.939940     44.209350     44.209350     88.418700
     -4.929930     40.839683     40.839683     81.679367
     -4.919920     36.856119     36.856119     73.712238
     -4.909910     33.207063     33.207063     66.414126
     -4.899900     30.811971     30.811971     61.623942
     -4.889890     30.394474     30.394474     60.788947
     -4.879880     32.320789     32.320789     64.641578
     -4.869870     36.461873     36.461873     72.923747
     -4.859860     42.135734     42.135734     84.271469
     -4.849850     48.198139     48.198139     96.396279
     -4.839840     53.305467     53.305467    106.610934
     -4.829830     56.287125     56.287125    112.574251
     -4.819820     56.490694     56.490694    112.981388
     -4.809810     53.955435     53.955435    107.910870
     -4.799800     49.342840     49.342840     98.685680
     -4.789790     43.666575     43.666575     87.333150
     -4.779780     37.951527     37.951527     75.903053
     -4.769770     32.964663     32.964663     65.929327
     -4.759760     29.101143     29.101143     58.202287
     -4.749750     26.422647     26.422647     52.845294
     -4.739740     24.782830     24.782830     49.565661
     -4.729730     23.960670     23.960670     47.921341
     -4.719720     23.746347     23.746347     47.492693
     -4.709710     23.962283     23.962283     47.924566
     -4.699700     24.436282     24.436282     48.872563
     -4.689690     24.965953     24.965953     49.931905
     -4.679680     25.317963     25.317963     50.635926
     -4.669670     25.287368     25.287368     50.574737
     -4.659660     24.805454     24.805454     49.610909
     -4.649650     24.046033     24.046033     48.092065
     -4.639640     23.462443     23.462443     46.924886
     -4.629630     23.704711     23.704711     47.409422
     -4.619620     25.415260     25.415260     50.830519
     -4.609610     28.962915     28.962915     57.925831
     -4.599600     34.220815     34.220815     68.441630
     -4.589590     40.498172     40.498172     80.996343
     -4.579580     46.686919     46.686919     93.373839
     -4.569570     51.595005     51.595005    103.190010
     -4.559560     54.347230     54.347230    108.694460
     -4.549550     54.690001     54.690001    109.380003
     -4.539540     53.067439     53.067439    106.134878
     -4.529530     50.432780     50.432780    100.865559
     -4.519520     47.874478     47.874478     95.748955
     -4.509510     46.214220     46.214220     92.428441
     -4.499499     45.738683     45.738683     91.477367
     -4.489489     46.160072     46.160072     92.320144
     -4.479479     46.797543     46.797543     93.595086
     -4.469469     46.881393     46.881393     93.762787
     -4.459459     45.843809     45.843809     91.687618
     -4.449449     43.486039     43.486039     86.972079
     -4.439439     39.983179     39.983179     79.966357
     -4.429429     35.765227     35.765227     71.530455
     -4.419419     31.357936     31.357936     62.715871
     -4.409409     27.260215     27.260215     54.520429
     -4.399399     23.887851     23.887851     47.775703
     -4.389389     21.560595     21.560595     43.121190
     -4.379379     20.487708     20.487708     40.975416
     -4.369369     20.728227     20.728227     41.456455
     -4.359359     22.145579     22.145579     44.291159
     -4.349349     24.403947     24.403947     48.807894
     -4.339339     27.041211     27.041211     54.082421
     -4.329329     29.608180     29.608180     59.216361
     -4.319319     31.818772     31.818772     63.637543
     -4.309309     33.641488     33.641488     67.282977
     -4.299299     35.286091     35.286091     70.572183
     -4.289289     37.084007     37.084007     74.168013
     -4.279279     39.303814     39.303814     78.607627
     -4.269269     41.970286     41.970286     83.940572
     -4.259259     44.762649     44.762649     89.525299
     -4.249249     47.051010     47.051010     94.102020
     -4.239239     48.084284     48.084284     96.168567
     -4.229229     47.274942     47.274942     94.549884
     -4.219219     44.464845     44.464845     88.929691
     -4.209209     40.043952     40.043952     80.087904
     -4.199199     34.851779     34.851779     69.703558
     -4.189189     29.896593     29.896593     59.793186
     -4.179179     26.019357     26.019357     52.038713
     -4.169169     23.652919     23.652919     47.305837
     -4.159159     22.770558     22.770558     45.541115
     -4.149149     23.019958     23.019958     46.039917
     -4.139139     23.955525     23.955525     47.911049
     -4.129129     25.250907     25.250907     50.501815
     -4.119119     26.797748     26.797748     53.595496
     -4.109109     28.655794     28.655794     57.311588
     -4.099099     30.888803     30.888803     61.777606
     -4.089089     33.376985     33.376985     66.753970
     -4.079079     35.717094     35.717094     71.434189
     -4.069069     37.287556     37.287556     74.575112
     -4.059059     37.472645     37.472645     74.945291
     -4.049049     35.945956     35.945956     71.891911
     -4.039039     32.867309     32.867309     65.734617
     -4.029029     28.884918     28.884918     57.769837
     -4.019019     24.937549     24.937549     49.875097
     -4.009009     21.955423     21.955423     43.910846
     -3.998999     20.599913     20.599913     41.199825
     -3.988989     21.142078     21.142078     42.284156
     -3.978979     23.494019     23.494019     46.988038
     -3.968969     27.333104     27.333104     54.666209
     -3.958959     32.237506     32.237506     64.475013
     -3.948949     37.781494     37.781494     75.562988
     -3.938939     43.586417     43.586417     87.172833
     -3.928929     49.349627     49.349627     98.699255
     -3.918919     54.864350     54.864350    109.728701
     -3.908909     60.017223     60.017223    120.034446
     -3.898899     64.739918     64.739918    129.479836
     -3.888889     68.914016     68.914016    137.828032
     -3.878879     72.269799     72.269799    144.539598
     -3.868869     74.345636     74.345636    148.691271
     -3.858859     74.559429     74.559429    149.118859
     -3.848849     72.390073     72.390073    144.780147
     -3.838839     67.604633     67.604633    135.209266
     -3.828829     60.432447     60.432447    120.864894
     -3.818819     51.601290     51.601290    103.202581
     -3.808809     42.206927     42.206927     84.413855
     -3.798799     33.456822     33.456822     66.913643
     -3.788789     26.377282     26.377282     52.754565
     -3.778779     21.580525     21.580525     43.161050
     -3.768769     19.157322     19.157322     38.314643
     -3.758759     18.712797     18.712797     37.425595
     -3.748749     19.520237     19.520237     39.040473
     -3.738739     20.742750     20.742750     41.485501
     -3.728729     21.665091     21.665091     43.330181
     -3.718719     21.881770     21.881770     43.763540
     -3.708709     21.398109     21.398109     42.796217
     -3.698699     20.616920     20.616920     41.233840
     -3.688689     20.206574     20.206574     40.413147
     -3.678679     20.876436     20.876436     41.752872
     -3.668669     23.118664     23.118664     46.237328
     -3.658659     26.999294     26.999294     53.998587
     -3.648649     32.079965     32.079965     64.159929
     -3.638639     37.513052     37.513052     75.026104
     -3.628629     42.284824     42.284824     84.569647
     -3.618619     45.514448     45.514448     91.028896
     -3.608609     46.690936     46.690936     93.381871
     -3.598599     45.764589     45.764589     91.529179
     -3.588589     43.083865     43.083865     86.167731
     -3.578579     39.234855     39.234855     78.469709
     -3.568569     34.861224     34.861224     69.722448
     -3.558559     30.518521     30.518521     61.037041
     -3.548549     26.581119     26.581119     53.162237
     -3.538539     23.202612     23.202612     46.405225
     -3.528529     20.331769     20.331769     40.663538
     -3.518519     17.785007     17.785007     35.570013
     -3.508509     15.358602     15.358602     30.717204
     -3.498498     12.940027     12.940027     25.880054
     -3.488488     10.571470     10.571470     21.142941
     -3.478478      8.440348      8.440348     16.880695
     -3.468468      6.807383      6.807383     13.614766
     -3.458458      5.908079      5.908079     11.816159
     -3.448448      5.865532      5.865532     11.731064
     -3.438438      6.639398      6.639398     13.278796
     -3.428428      8.022942      8.022942     16.045884
     -3.418418      9.693164      9.693164     19.386329
     -3.408408     11.310547     11.310547     22.621094
     -3.398398     12.646656     12.646656     25.293311
     -3.388388     13.695044     13.695044     27.390088
     -3.378378     14.711829     14.711829     29.423659
     -3.368368     16.152132     16.152132     32.304263
     -3.358358     18.512916     18.512916     37.025832
     -3.348348     22.137379     22.137379     44.274757
     -3.338338     27.053981     27.053981     54.107962
     -3.328328     32.905711     32.905711     65.811422
     -3.318318     38.987088     38.987088     77.974175
     -3.308308     44.372915     44.372915     88.745830
     -3.298298     48.107453     48.107453     96.214906
     -3.288288     49.418691     49.418691     98.837383
     -3.278278     47.914918     47.914918     95.829836
     -3.268268     43.708760     43.708760     87.417520
     -3.258258     37.415963     37.415963     74.831925
     -3.248248     30.011112     30.011112     60.022224
     -3.238238     22.582376     22.582376     45.164752
     -3.228228     16.075681     16.075681     32.151362
     -3.218218     11.119728     11.119728     22.239457
     -3.208208      7.974697      7.974697     15.949394
     -3.198198      6.584186      6.584186     13.168371
     -3.188188      6.674506      6.674506     13.349011
     -3.178178      7.854023      7.854023     15.708045
     -3.168168      9.698757      9.698757     19.397513
     -3.158158     11.834183     11.834183     23.668366
     -3.148148     14.016694     14.016694     28.033388
     -3.138138     16.190850     16.190850     32.381700
     -3.128128     18.480812     18.480812     36.961624
     -3.118118     21.091863     21.091863     42.183725
     -3.108108     24.148105     24.148105     48.296209
     -3.098098     27.543042     27.543042     55.086084
     -3.088088     30.890852     30.890852     61.781704
     -3.078078     33.621351     33.621351     67.242703
     -3.068068     35.182885     35.182885     70.365771
     -3.058058     35.252994     35.252994     70.505988
     -3.048048     33.849212     33.849212     67.698423
     -3.038038     31.288997     31.288997     62.577994
     -3.028028     28.033925     28.033925     56.067850
     -3.018018     24.514396     24.514396     49.028792
     -3.008008     21.029985     21.029985     42.059970
     -2.997998     17.762505     17.762505     35.525010
     -2.987988     14.866493     14.866493     29.732986
     -2.977978     12.562138     12.562138     25.124277
     -2.967968     11.166639     11.166639     22.333279
     -2.957958     11.043407     11.043407     22.086814
     -2.947948     12.491451     12.491451     24.982903
     -2.937938     15.619108     15.619108     31.238216
     -2.927928     20.247833     20.247833     40.495667
     -2.917918     25.883197     25.883197     51.766393
     -2.907908     31.775820     31.775820     63.551640
     -2.897898     37.071461     37.071461     74.142923
     -2.887888     41.016337     41.016337     82.032674
     -2.877878     43.152534     43.152534     86.305068
     -2.867868     43.428508     43.428508     86.857016
     -2.857858     42.174732     42.174732     84.349464
     -2.847848     39.949268     39.949268     79.898535
     -2.837838     37.317516     37.317516     74.635033
     -2.827828     34.662703     34.662703     69.325406
     -2.817818     32.108645     32.108645     64.217290
     -2.807808     29.579178     29.579178     59.158356
     -2.797798     26.948778     26.948778     53.897556
     -2.787788     24.194511     24.194511     48.389021
     -2.777778     21.464979     21.464979     42.929957
     -2.767768     19.033848     19.033848     38.067696
     -2.757758     17.173705     17.173705     34.347409
     -2.747748     16.031076     16.031076     32.062152
     -2.737738     15.579100     15.579100     31.158200
     -2.727728     15.673015     15.673015     31.346030
     -2.717718     16.166406     16.166406     32.332812
     -2.707708     17.005711     17.005711     34.011421
     -2.697698     18.234983     18.234983     36.469966
     -2.687688     19.905753     19.905753     39.811506
     -2.677678     21.957134     21.957134     43.914269
     -2.667668     24.159282     24.159282     48.318564
     -2.657658     26.175084     26.175084     52.350168
     -2.647648     27.713494     27.713494     55.426988
     -2.637638     28.679866     28.679866     57.359732
     -2.627628     29.224626     29.224626     58.449253
     -2.617618     29.656671     29.656671     59.313342
     -2.607608     30.275482     30.275482     60.550963
     -2.597598     31.222730     31.222730     62.445459
     -2.587588     32.429150     32.429150     64.858299
     -2.577578     33.661217     33.661217     67.322435
     -2.567568     34.613178     34.613178     69.226356
     -2.557558     34.985291     34.985291     69.970582
     -2.547548     34.530732     34.530732     69.061464
     -2.537538     33.095202     33.095202     66.190404
     -2.527528     30.674922     30.674922     61.349844
     -2.517518     27.481983     27.481983     54.963966
     -2.507508     23.969363     23.969363     47.938726
     -2.497497     20.768951     20.768951     41.537902
     -2.487487     18.538408     18.538408     37.076817
     -2.477477     17.766909     17.766909     35.533817
     -2.467467     18.619546     18.619546     37.239092
     -2.457457     20.889021     20.889021     41.778042
     -2.447447     24.079004     24.079004     48.158008
     -2.437437     27.587760     27.587760     55.175521
     -2.427427     30.916403     30.916403     61.832805
     -2.417417     33.812343     33.812343     67.624686
     -2.407407     36.284178     36.284178     72.568357
     -2.397397     38.482214     38.482214     76.964429
     -2.387387     40.504695     40.504695     81.009389
     -2.377377     42.231344     42.231344     84.462688
     -2.367367     43.279110     43.279110     86.558220
     -2.357357     43.118365     43.118365     86.236729
     -2.347347     41.305914     41.305914     82.611827
     -2.337337     37.726111     37.726111     75.452221
     -2.327327     32.721178     32.721178     65.442356
     -2.317317     27.045561     27.045561     54.091122
     -2.307307     21.666426     21.666426     43.332853
     -2.297297     17.501642     17.501642     35.003285
     -2.287287     15.200419     15.200419     30.400839
     -2.277277     15.032335     15.032335     30.064670
     -2.267267     16.891568     16.891568     33.783137
     -2.257257     20.380920     20.380920     40.761841
     -2.247247     24.928436     24.928436     49.856871
     -2.237237     29.899358     29.899358     59.798715
     -2.227227     34.682434     34.682434     69.364868
     -2.217217     38.743986     38.743986     77.487972
     -2.207207     41.655320     41.655320     83.310641
     -2.197197     43.108912     43.108912     86.217825
     -2.187187     42.941434     42.941434     85.882868
     -2.177177     41.170647     41.170647     82.341295
     -2.167167     38.029922     38.029922     76.059844
     -2.157157     33.963742     33.963742     67.927483
     -2.147147     29.551093     29.551093     59.102185
     -2.137137     25.359292     25.359292     50.718584
     -2.127127     21.780025     21.780025     43.560050
     -2.117117     18.925686     18.925686     37.851372
     -2.107107     16.641795     16.641795     33.283589
     -2.097097     14.629621     14.629621     29.259242
     -2.087087     12.612533     12.612533     25.225066
     -2.077077     10.460702     10.460702     20.921405
     -2.067067      8.221582      8.221582     16.443165
     -2.057057      6.061833      6.061833     12.123666
     -2.047047      4.170624      4.170624      8.341249
     -2.037037      2.681204      2.681204      5.362408
     -2.027027      1.642586      1.642586      3.285173
     -2.017017      1.039423      1.039423      2.078847
     -2.007007      0.836291      0.836291      1.672582
     -1.996997      1.018974      1.018974      2.037948
     -1.986987      1.613669      1.613669      3.227339
     -1.976977      2.676893      2.676893      5.353786
     -1.966967      4.260199      4.260199      8.520397
     -1.956957      6.364070      6.364070     12.728141
     -1.946947      8.902584      8.902584     17.805167
     -1.936937     11.699305     11.699305     23.398610
     -1.926927     14.521607     14.521607     29.043213
     -1.916917     17.139462     17.139462     34.278925
     -1.906907     19.379097     19.379097     38.758195
     -1.896897     21.144293     21.144293     42.288585
     -1.886887     22.399092     22.399092     44.798184
     -1.876877     23.130948     23.130948     46.261896
     -1.866867     23.325039     23.325039     46.650078
     -1.856857     22.970818     22.970818     45.941636
     -1.846847     22.097897     22.097897     44.195794
     -1.836837     20.815327     20.815327     41.630654
     -1.826827     19.320100     19.320100     38.640200
     -1.816817     17.853748     17.853748     35.707496
     -1.806807     16.616078     16.616078     33.232156
     -1.796797     15.676678     15.676678     31.353356
     -1.786787     14.936322     14.936322     29.872644
     -1.776777     14.168960     14.168960     28.337920
     -1.766767     13.129658     13.129658     26.259315
     -1.756757     11.673672     11.673672     23.347345
     -1.746747      9.825079      9.825079     19.650158
     -1.736737      7.764933      7.764933     15.529866
     -1.726727      5.756221      5.756221     11.512442
     -1.716717      4.053669      4.053669      8.107337
     -1.706707      2.843650      2.843650      5.687299
     -1.696697      2.230671      2.230671      4.461343
     -1.686687      2.254915      2.254915      4.509830
     -1.676677      2.910280      2.910280      5.820559
     -1.666667      4.140357      4.140357      8.280714
     -1.656657      5.812997      5.812997     11.625993
     -1.646647      7.697368      7.697368     15.394737
     -1.636637      9.475803      9.475803     18.951606
     -1.626627     10.808880     10.808880     21.617761
