# EIG2DOS: Utility for SIESTA to obtain the electronic density of states
#  E. Artacho, Apr 1999, A. Garcia, Apr 2012
#  Nick R. Papior, Feb 2017
# ------------------------------------------
# Eigenvalues calculated from a non-polarized calculation
# Eigenvalues read from siesta.EIG
# Kpoint weights read from siesta.KP
# Using smearing parameter:   0.0500
# Using 1000 points in the energy range
# Selected bands: 1 to: 2981
# Emin, Emax in file for selected band(s):    -27.3580678    218.3888120
# Nbands, Nspin, Nk   =   2981     1     1
# E_F                 =    -4.2077 eV --> (shifted to ZERO)
# Broadening          =     0.0500 eV
#
#        E            N(up)  (=)   N(down)         Ntot
     -5.000000     34.782810     34.782810     69.565621
     -4.989990     39.332479     39.332479     78.664958
     -4.979980     43.115741     43.115741     86.231482
     -4.969970     45.476160     45.476160     90.952321
     -4.959960     45.993108     45.993108     91.986216
     -4.949950     44.622045     44.622045     89.244089
     -4.939940     41.715700     41.715700     83.431400
     -4.929930     37.938344     37.938344     75.876688
     -4.919920     34.126472     34.126472     68.252943
     -4.909910     31.146092     31.146092     62.292183
     -4.899900     29.761629     29.761629     59.523259
     -4.889890     30.501892     30.501892     61.003784
     -4.879880     33.516511     33.516511     67.033022
     -4.869870     38.458980     38.458980     76.917959
     -4.859860     44.470953     44.470953     88.941906
     -4.849850     50.332593     50.332593    100.665185
     -4.839840     54.774407     54.774407    109.548814
     -4.829830     56.854074     56.854074    113.708149
     -4.819820     56.247616     56.247616    112.495233
     -4.809810     53.328644     53.328644    106.657287
     -4.799800     49.002622     49.002622     98.005245
     -4.789790     44.372147     44.372147     88.744293
     -4.779780     40.374407     40.374407     80.748813
     -4.769770     37.525740     37.525740     75.051479
     -4.759760     35.846240     35.846240     71.692480
     -4.749750     34.959603     34.959603     69.919205
     -4.739740     34.303592     34.303592     68.607185
     -4.729730     33.359262     33.359262     66.718524
     -4.719720     31.813604     31.813604     63.627209
     -4.709710     29.607630     29.607630     59.215260
     -4.699700     26.878701     26.878701     53.757401
     -4.689690     23.856813     23.856813     47.713627
     -4.679680     20.789156     20.789156     41.578312
     -4.669670     17.934574     17.934574     35.869149
     -4.659660     15.611621     15.611621     31.223241
     -4.649650     14.240429     14.240429     28.480858
     -4.639640     14.316759     14.316759     28.633518
     -4.629630     16.293287     16.293287     32.586574
     -4.619620     20.395386     20.395386     40.790772
     -4.609610     26.442040     26.442040     52.884079
     -4.599600     33.760528     33.760528     67.521055
     -4.589590     41.265044     41.265044     82.530088
     -4.579580     47.711394     47.711394     95.422787
     -4.569570     52.058512     52.058512    104.117023
     -4.559560     53.801789     53.801789    107.603578
     -4.549550     53.135699     53.135699    106.271399
     -4.539540     50.868249     50.868249    101.736499
     -4.529530     48.117385     48.117385     96.234771
     -4.519520     45.913146     45.913146     91.826293
     -4.509510     44.862667     44.862667     89.725333
     -4.499499     44.997772     44.997772     89.995545
     -4.489489     45.841775     45.841775     91.683549
     -4.479479     46.644039     46.644039     93.288078
     -4.469469     46.674157     46.674157     93.348314
     -4.459459     45.460749     45.460749     90.921497
     -4.449449     42.900087     42.900087     85.800174
     -4.439439     39.225007     39.225007     78.450013
     -4.429429     34.883292     34.883292     69.766583
     -4.419419     30.399680     30.399680     60.799360
     -4.409409     26.277694     26.277694     52.555387
     -4.399399     22.952550     22.952550     45.905099
     -4.389389     20.766964     20.766964     41.533928
     -4.379379     19.935435     19.935435     39.870870
     -4.369369     20.491463     20.491463     40.982926
     -4.359359     22.249797     22.249797     44.499594
     -4.349349     24.828269     24.828269     49.656538
     -4.339339     27.747414     27.747414     55.494828
     -4.329329     30.578401     30.578401     61.156802
     -4.319319     33.075185     33.075185     66.150370
     -4.309309     35.229121     35.229121     70.458242
     -4.299299     37.220438     37.220438     74.440877
     -4.289289     39.287075     39.287075     78.574150
     -4.279279     41.563606     41.563606     83.127213
     -4.269269     43.952895     43.952895     87.905790
     -4.259259     46.084671     46.084671     92.169342
     -4.249249     47.392144     47.392144     94.784289
     -4.239239     47.298607     47.298607     94.597215
     -4.229229     45.455311     45.455311     90.910622
     -4.219219     41.931546     41.931546     83.863092
     -4.209209     37.259387     37.259387     74.518773
     -4.199199     32.293226     32.293226     64.586451
     -4.189189     27.934240     27.934240     55.868480
     -4.179179     24.840532     24.840532     49.681063
     -4.169169     23.251185     23.251185     46.502371
     -4.159159     22.993056     22.993056     45.986112
     -4.149149     23.648987     23.648987     47.297974
     -4.139139     24.793958     24.793958     49.587915
     -4.129129     26.182564     26.182564     52.365129
     -4.119119     27.800966     27.800966     55.601932
     -4.109109     29.763053     29.763053     59.526106
     -4.099099     32.108507     32.108507     64.217015
     -4.089089     34.617822     34.617822     69.235644
     -4.079079     36.763938     36.763938     73.527875
     -4.069069     37.856958     37.856958     75.713915
     -4.059059     37.330851     37.330851     74.661702
     -4.049049     35.030026     35.030026     70.060052
     -4.039039     31.341109     31.341109     62.682218
     -4.029029     27.095925     27.095925     54.191850
     -4.019019     23.296152     23.296152     46.592304
     -4.009009     20.798917     20.798917     41.597833
     -3.998999     20.104368     20.104368     40.208736
     -3.988989     21.311077     21.311077     42.622155
     -3.978979     24.210006     24.210006     48.420012
     -3.968969     28.431874     28.431874     56.863749
     -3.958959     33.569271     33.569271     67.138542
     -3.948949     39.242902     39.242902     78.485804
     -3.938939     45.127740     45.127740     90.255481
     -3.928929     50.966843     50.966843    101.933686
     -3.918919     56.578988     56.578988    113.157976
     -3.908909     61.840812     61.840812    123.681624
     -3.898899     66.625610     66.625610    133.251221
     -3.888889     70.713435     70.713435    141.426870
     -3.878879     73.723911     73.723911    147.447823
     -3.868869     75.130730     75.130730    150.261460
     -3.858859     74.382907     74.382907    148.765813
     -3.848849     71.101027     71.101027    142.202055
     -3.838839     65.270835     65.270835    130.541671
     -3.828829     57.347779     57.347779    114.695557
     -3.818819     48.218604     48.218604     96.437207
     -3.808809     39.022645     39.022645     78.045291
     -3.798799     30.889306     30.889306     61.778612
     -3.788789     24.676654     24.676654     49.353308
     -3.778779     20.790480     20.790480     41.580959
     -3.768769     19.130768     19.130768     38.261536
     -3.758759     19.170174     19.170174     38.340348
     -3.748749     20.133051     20.133051     40.266101
     -3.738739     21.222617     21.222617     42.445233
     -3.728729     21.838414     21.838414     43.676828
     -3.718719     21.732421     21.732421     43.464841
     -3.708709     21.066102     21.066102     42.132203
     -3.698699     20.350690     20.350690     40.701379
     -3.688689     20.279008     20.279008     40.558016
     -3.678679     21.487775     21.487775     42.975550
     -3.668669     24.317932     24.317932     48.635864
     -3.658659     28.654212     28.654212     57.308424
     -3.648649     33.909788     33.909788     67.819575
     -3.638639     39.173287     39.173287     78.346573
     -3.628629     43.469476     43.469476     86.938952
     -3.618619     46.034498     46.034498     92.068996
     -3.608609     46.502610     46.502610     93.005220
     -3.598599     44.948407     44.948407     89.896814
     -3.588589     41.797174     41.797174     83.594348
     -3.578579     37.663880     37.663880     75.327760
     -3.568569     33.185949     33.185949     66.371898
     -3.558559     28.889211     28.889211     57.778423
     -3.548549     25.101165     25.101165     50.202331
     -3.538539     21.918472     21.918472     43.836943
     -3.528529     19.237035     19.237035     38.474070
     -3.518519     16.843308     16.843308     33.686617
     -3.508509     14.540383     14.540383     29.080767
     -3.498498     12.260338     12.260338     24.520675
     -3.488488     10.116749     10.116749     20.233499
     -3.478478      8.379914      8.379914     16.759829
     -3.468468      7.391638      7.391638     14.783276
     -3.458458      7.454001      7.454001     14.908002
     -3.448448      8.723221      8.723221     17.446441
     -3.438438     11.130272     11.130272     22.260543
     -3.428428     14.348532     14.348532     28.697064
     -3.418418     17.832219     17.832219     35.664438
     -3.408408     20.940211     20.940211     41.880422
     -3.398398     23.126806     23.126806     46.253612
     -3.388388     24.136901     24.136901     48.273803
     -3.378378     24.120130     24.120130     48.240260
     -3.368368     23.601634     23.601634     47.203267
     -3.358358     23.309808     23.309808     46.619615
     -3.348348     23.926466     23.926466     47.852931
     -3.338338     25.853527     25.853527     51.707054
     -3.328328     29.072283     29.072283     58.144565
     -3.318318     33.128849     33.128849     66.257698
     -3.308308     37.242343     37.242343     74.484686
     -3.298298     40.509628     40.509628     81.019257
     -3.288288     42.159779     42.159779     84.319558
     -3.278278     41.784777     41.784777     83.569555
     -3.268268     39.458287     39.458287     78.916573
     -3.258258     35.682058     35.682058     71.364117
     -3.248248     31.175127     31.175127     62.350254
     -3.238238     26.604373     26.604373     53.208746
     -3.228228     22.386811     22.386811     44.773622
     -3.218218     18.646755     18.646755     37.293511
     -3.208208     15.316854     15.316854     30.633708
     -3.198198     12.296910     12.296910     24.593821
     -3.188188      9.574705      9.574705     19.149409
     -3.178178      7.262131      7.262131     14.524261
     -3.168168      5.561845      5.561845     11.123690
     -3.158158      4.709995      4.709995      9.419989
     -3.148148      4.928614      4.928614      9.857227
     -3.138138      6.389123      6.389123     12.778245
     -3.128128      9.167833      9.167833     18.335665
     -3.118118     13.182320     13.182320     26.364641
     -3.108108     18.126834     18.126834     36.253669
     -3.098098     23.451254     23.451254     46.902507
     -3.088088     28.426960     28.426960     56.853920
     -3.078078     32.306116     32.306116     64.612233
     -3.068068     34.525430     34.525430     69.050861
     -3.058058     34.866735     34.866735     69.733470
     -3.048048     33.495812     33.495812     66.991623
     -3.038038     30.860146     30.860146     61.720293
     -3.028028     27.502107     27.502107     55.004214
     -3.018018     23.887208     23.887208     47.774416
     -3.008008     20.328957     20.328957     40.657914
     -2.997998     17.026287     17.026287     34.052575
     -2.987988     14.162780     14.162780     28.325560
     -2.977978     11.990640     11.990640     23.981280
     -2.967968     10.844780     10.844780     21.689559
     -2.957958     11.078351     11.078351     22.156702
     -2.947948     12.948730     12.948730     25.897460
     -2.937938     16.498000     16.498000     32.996000
     -2.927928     21.470180     21.470180     42.940359
     -2.917918     27.298959     27.298959     54.597918
     -2.907908     33.185953     33.185953     66.371906
     -2.897898     38.265262     38.265262     76.530524
     -2.887888     41.815857     41.815857     83.631714
     -2.877878     43.452439     43.452439     86.904879
     -2.867868     43.218694     43.218694     86.437387
     -2.857858     41.536977     41.536977     83.073954
     -2.847848     39.028071     39.028071     78.056142
     -2.837838     36.275784     36.275784     72.551567
     -2.827828     33.639922     33.639922     67.279844
     -2.817818     31.197866     31.197866     62.395732
     -2.807808     28.828972     28.828972     57.657944
     -2.797798     26.382563     26.382563     52.765125
     -2.787788     23.830655     23.830655     47.661310
     -2.777778     21.323092     21.323092     42.646183
     -2.767768     19.124745     19.124745     38.249490
     -2.757758     17.484701     17.484701     34.969401
     -2.747748     16.523951     16.523951     33.047902
     -2.737738     16.209739     16.209739     32.419477
     -2.727728     16.423432     16.423432     32.846864
     -2.717718     17.064588     17.064588     34.129176
     -2.707708     18.109996     18.109996     36.219992
     -2.697698     19.581215     19.581215     39.162429
     -2.687688     21.445161     21.445161     42.890322
     -2.677678     23.529038     23.529038     47.058076
     -2.667668     25.529147     25.529147     51.058294
     -2.657658     27.129236     27.129236     54.258472
     -2.647648     28.161770     28.161770     56.323539
     -2.637638     28.706091     28.706091     57.412182
     -2.627628     29.052960     29.052960     58.105920
     -2.617618     29.551694     29.551694     59.103388
     -2.607608     30.430941     30.430941     60.861881
     -2.597598     31.693503     31.693503     63.387005
     -2.587588     33.127644     33.127644     66.255288
     -2.577578     34.401121     34.401121     68.802243
     -2.567568     35.167831     35.167831     70.335662
     -2.557558     35.139727     35.139727     70.279454
     -2.547548     34.126955     34.126955     68.253910
     -2.537538     32.077113     32.077113     64.154225
     -2.527528     29.127405     29.127405     58.254810
     -2.517518     25.643042     25.643042     51.286084
     -2.507508     22.193861     22.193861     44.387723
     -2.497497     19.442219     19.442219     38.884438
     -2.487487     17.964987     17.964987     35.929973
     -2.477477     18.075865     18.075865     36.151729
     -2.467467     19.723695     19.723695     39.447390
     -2.457457     22.514224     22.514224     45.028448
     -2.447447     25.852278     25.852278     51.704556
     -2.437437     29.150824     29.150824     58.301649
     -2.427427     32.022988     32.022988     64.045976
     -2.417417     34.376028     34.376028     68.752055
     -2.407407     36.364560     36.364560     72.729119
     -2.397397     38.221331     38.221331     76.442661
     -2.387387     40.043147     40.043147     80.086294
     -2.377377     41.639308     41.639308     83.278615
     -2.367367     42.530596     42.530596     85.061191
     -2.357357     42.119179     42.119179     84.238358
     -2.347347     39.961504     39.961504     79.923008
     -2.337337     36.014987     36.014987     72.029973
     -2.327327     30.735611     30.735611     61.471223
     -2.317317     24.978905     24.978905     49.957810
     -2.307307     19.756185     19.756185     39.512370
     -2.297297     15.960059     15.960059     31.920118
     -2.287287     14.165882     14.165882     28.331763
     -2.277277     14.557118     14.557118     29.114236
     -2.267267     16.958882     16.958882     33.917764
     -2.257257     20.931506     20.931506     41.863012
     -2.247247     25.878841     25.878841     51.757681
     -2.237237     31.145314     31.145314     62.290628
     -2.227227     36.092760     36.092760     72.185520
     -2.217217     40.156949     40.156949     80.313898
     -2.207207     42.888711     42.888711     85.777422
     -2.197197     43.988490     43.988490     87.976980
     -2.187187     43.342469     43.342469     86.684938
     -2.177177     41.057566     41.057566     82.115132
     -2.167167     37.474352     37.474352     74.948703
     -2.157157     33.126256     33.126256     66.252512
     -2.147147     28.627529     28.627529     57.255058
     -2.137137     24.512199     24.512199     49.024397
     -2.127127     21.087742     21.087742     42.175484
     -2.117117     18.376266     18.376266     36.752531
     -2.107107     16.177562     16.177562     32.355124
     -2.097097     14.223102     14.223102     28.446203
     -2.087087     12.340614     12.340614     24.681228
     -2.077077     10.547333     10.547333     21.094665
     -2.067067      9.033727      9.033727     18.067454
     -2.057057      8.057224      8.057224     16.114448
     -2.047047      7.803491      7.803491     15.606983
     -2.037037      8.277899      8.277899     16.555797
     -2.027027      9.269711      9.269711     18.539423
     -2.017017     10.401338     10.401338     20.802676
     -2.007007     11.244573     11.244573     22.489147
     -1.996997     11.461364     11.461364     22.922728
     -1.986987     10.915936     10.915936     21.831871
     -1.976977      9.715954      9.715954     19.431908
     -1.966967      8.171309      8.171309     16.342619
     -1.956957      6.694583      6.694583     13.389166
     -1.946947      5.686753      5.686753     11.373505
     -1.936937      5.445951      5.445951     10.891902
     -1.926927      6.115386      6.115386     12.230771
     -1.916917      7.667417      7.667417     15.334834
     -1.906907      9.915452      9.915452     19.830904
     -1.896897     12.549706     12.549706     25.099412
     -1.886887     15.195278     15.195278     30.390557
     -1.876877     17.485508     17.485508     34.971016
     -1.866867     19.135286     19.135286     38.270572
     -1.856857     19.996325     19.996325     39.992650
     -1.846847     20.081084     20.081084     40.162167
     -1.836837     19.548792     19.548792     39.097585
     -1.826827     18.652607     18.652607     37.305213
     -1.816817     17.655285     17.655285     35.310569
     -1.806807     16.735930     16.735930     33.471860
     -1.796797     15.925257     15.925257     31.850513
     -1.786787     15.105037     15.105037     30.210074
     -1.776777     14.079798     14.079798     28.159596
     -1.766767     12.688162     12.688162     25.376324
     -1.756757     10.895983     10.895983     21.791966
     -1.746747      8.824056      8.824056     17.648112
     -1.736737      6.703180      6.703180     13.406359
     -1.726727      4.790397      4.790397      9.580793
     -1.716717      3.295099      3.295099      6.590198
     -1.706707      2.346867      2.346867      4.693734
     -1.696697      2.004601      2.004601      4.009202
     -1.686687      2.281552      2.281552      4.563104
     -1.676677      3.156732      3.156732      6.313463
     -1.666667      4.559038      4.559038      9.118076
     -1.656657      6.335106      6.335106     12.670213
     -1.646647      8.230647      8.230647     16.461293
     -1.636637      9.915844      9.915844     19.831689
     -1.626627     11.064973     11.064973     22.129947
