# EIG2DOS: Utility for SIESTA to obtain the electronic density of states
#  E. Artacho, Apr 1999, A. Garcia, Apr 2012
#  Nick R. Papior, Feb 2017
# ------------------------------------------
# Eigenvalues calculated from a non-polarized calculation
# Eigenvalues read from siesta.EIG
# Kpoint weights read from siesta.KP
# Using smearing parameter:   0.0500
# Using 1000 points in the energy range
# Selected bands: 1 to: 2981
# Emin, Emax in file for selected band(s):    -27.0734195    218.3444060
# Nbands, Nspin, Nk   =   2981     1     1
# E_F                 =    -4.2613 eV --> (shifted to ZERO)
# Broadening          =     0.0500 eV
#
#        E            N(up)  (=)   N(down)         Ntot
     -5.000000     34.973519     34.973519     69.947039
     -4.989990     38.435957     38.435957     76.871914
     -4.979980     41.518609     41.518609     83.037217
     -4.969970     43.631877     43.631877     87.263754
     -4.959960     44.346240     44.346240     88.692481
     -4.949950     43.510785     43.510785     87.021570
     -4.939940     41.294666     41.294666     82.589331
     -4.929930     38.152466     38.152466     76.304931
     -4.919920     34.742716     34.742716     69.485432
     -4.909910     31.830549     31.830549     63.661097
     -4.899900     30.182415     30.182415     60.364829
     -4.889890     30.436533     30.436533     60.873067
     -4.879880     32.936804     32.936804     65.873607
     -4.869870     37.559433     37.559433     75.118865
     -4.859860     43.613607     43.613607     87.227215
     -4.849850     49.911102     49.911102     99.822203
     -4.839840     55.042841     55.042841    110.085682
     -4.829830     57.792087     57.792087    115.584173
     -4.819820     57.520497     57.520497    115.040995
     -4.809810     54.353709     54.353709    108.707417
     -4.799800     49.084593     49.084593     98.169185
     -4.789790     42.852332     42.852332     85.704665
     -4.779780     36.756849     36.756849     73.513699
     -4.769770     31.573005     31.573005     63.146010
     -4.759760     27.647963     27.647963     55.295926
     -4.749750     24.961852     24.961852     49.923704
     -4.739740     23.269663     23.269663     46.539325
     -4.729730     22.241371     22.241371     44.482742
     -4.719720     21.554595     21.554595     43.109190
     -4.709710     20.935199     20.935199     41.870397
     -4.699700     20.166754     20.166754     40.333508
     -4.689690     19.097215     19.097215     38.194430
     -4.679680     17.663646     17.663646     35.327292
     -4.669670     15.937073     15.937073     31.874146
     -4.659660     14.167511     14.167511     28.335022
     -4.649650     12.796413     12.796413     25.592825
     -4.639640     12.408028     12.408028     24.816055
     -4.629630     13.609849     13.609849     27.219699
     -4.619620     16.856873     16.856873     33.713746
     -4.609610     22.259659     22.259659     44.519318
     -4.599600     29.439526     29.439526     58.879051
     -4.589590     37.505668     37.505668     75.011336
     -4.579580     45.209544     45.209544     90.419089
     -4.569570     51.269871     51.269871    102.539741
     -4.559560     54.775079     54.775079    109.550159
     -4.549550     55.507061     55.507061    111.014123
     -4.539540     54.037810     54.037810    108.075621
     -4.529530     51.537833     51.537833    103.075666
     -4.519520     49.360277     49.360277     98.720554
     -4.509510     48.562396     48.562396     97.124793
     -4.499499     49.548915     49.548915     99.097831
     -4.489489     51.965050     51.965050    103.930101
     -4.479479     54.862716     54.862716    109.725432
     -4.469469     57.058828     57.058828    114.117655
     -4.459459     57.540231     57.540231    115.080462
     -4.449449     55.767221     55.767221    111.534441
     -4.439439     51.784046     51.784046    103.568091
     -4.429429     46.132931     46.132931     92.265862
     -4.419419     39.645509     39.645509     79.291018
     -4.409409     33.215014     33.215014     66.430028
     -4.399399     27.625343     27.625343     55.250686
     -4.389389     23.455818     23.455818     46.911636
     -4.379379     21.036497     21.036497     42.072994
     -4.369369     20.425209     20.425209     40.850419
     -4.359359     21.405239     21.405239     42.810477
     -4.349349     23.527770     23.527770     47.055540
     -4.339339     26.217979     26.217979     52.435959
     -4.329329     28.929265     28.929265     57.858530
     -4.319319     31.294088     31.294088     62.588177
     -4.309309     33.210911     33.210911     66.421823
     -4.299299     34.831663     34.831663     69.663326
     -4.289289     36.455506     36.455506     72.911011
     -4.279279     38.368215     38.368215     76.736430
     -4.269269     40.680963     40.680963     81.361926
     -4.259259     43.222378     43.222378     86.444757
     -4.249249     45.529626     45.529626     91.059252
     -4.239239     46.963145     46.963145     93.926290
     -4.229229     46.926744     46.926744     93.853487
     -4.219219     45.117734     45.117734     90.235468
     -4.209209     41.694045     41.694045     83.388090
     -4.199199     37.264510     37.264510     74.529019
     -4.189189     32.689750     32.689750     65.379499
     -4.179179     28.781315     28.781315     57.562629
     -4.169169     26.041890     26.041890     52.083779
     -4.159159     24.563416     24.563416     49.126831
     -4.149149     24.111779     24.111779     48.223559
     -4.139139     24.332499     24.332499     48.664997
     -4.129129     24.962079     24.962079     49.924159
     -4.119119     25.940306     25.940306     51.880611
     -4.109109     27.374039     27.374039     54.748078
     -4.099099     29.376043     29.376043     58.752086
     -4.089089     31.866439     31.866439     63.732879
     -4.079079     34.453553     34.453553     68.907105
     -4.069069     36.483317     36.483317     72.966633
     -4.059059     37.262631     37.262631     74.525261
     -4.049049     36.360111     36.360111     72.720222
     -4.039039     33.830385     33.830385     67.660770
     -4.029029     30.239558     30.239558     60.479116
     -4.019019     26.476538     26.476538     52.953075
     -4.009009     23.450303     23.450303     46.900606
     -3.998999     21.823522     21.823522     43.647044
     -3.988989     21.891811     21.891811     43.783621
     -3.978979     23.621704     23.621704     47.243408
     -3.968969     26.776858     26.776858     53.553715
     -3.958959     31.040558     31.040558     62.081117
     -3.948949     36.083119     36.083119     72.166238
     -3.938939     41.582734     41.582734     83.165468
     -3.928929     47.239168     47.239168     94.478336
     -3.918919     52.803251     52.803251    105.606501
     -3.908909     58.104743     58.104743    116.209486
     -3.898899     63.038425     63.038425    126.076849
     -3.888889     67.487746     67.487746    134.975491
     -3.878879     71.214938     71.214938    142.429877
     -3.868869     73.788164     73.788164    147.576327
     -3.858859     74.615848     74.615848    149.231696
     -3.848849     73.109367     73.109367    146.218734
     -3.838839     68.923292     68.923292    137.846585
     -3.828829     62.169141     62.169141    124.338282
     -3.818819     53.496864     53.496864    106.993729
     -3.808809     43.992130     43.992130     87.984260
     -3.798799     34.918631     34.918631     69.837262
     -3.788789     27.399822     27.399822     54.799643
     -3.778779     22.152198     22.152198     44.304395
     -3.768769     19.350797     19.350797     38.701595
     -3.758759     18.651294     18.651294     37.302587
     -3.748749     19.342051     19.342051     38.684101
     -3.738739     20.570920     20.570920     41.141841
     -3.728729     21.585036     21.585036     43.170072
     -3.718719     21.928260     21.928260     43.856519
     -3.708709     21.552720     21.552720     43.105439
     -3.698699     20.816575     20.816575     41.633150
     -3.688689     20.362067     20.362067     40.724133
     -3.678679     20.897504     20.897504     41.795008
     -3.668669     22.940054     22.940054     45.880108
     -3.658659     26.601258     26.601258     53.202517
     -3.648649     31.497362     31.497362     62.994723
     -3.638639     36.830004     36.830004     73.660008
     -3.628629     41.616122     41.616122     83.232244
     -3.618619     44.979078     44.979078     89.958156
     -3.608609     46.385359     46.385359     92.770718
     -3.598599     45.742833     45.742833     91.485666
     -3.588589     43.348687     43.348687     86.697374
     -3.578579     39.740965     39.740965     79.481930
     -3.568569     35.528835     35.528835     71.057669
     -3.558559     31.253462     31.253462     62.506923
     -3.548549     27.296226     27.296226     54.592453
     -3.538539     23.834523     23.834523     47.669047
     -3.528529     20.848619     20.848619     41.697238
     -3.518519     18.183926     18.183926     36.367852
     -3.508509     15.655891     15.655891     31.311781
     -3.498498     13.159273     13.159273     26.318546
     -3.488488     10.734464     10.734464     21.468928
     -3.478478      8.562964      8.562964     17.125929
     -3.468468      6.899650      6.899650     13.799300
     -3.458458      5.975933      5.975933     11.951867
     -3.448448      5.911795      5.911795     11.823590
     -3.438438      6.662371      6.662371     13.324742
     -3.428428      8.011698      8.011698     16.023397
     -3.418418      9.618653      9.618653     19.237306
     -3.408408     11.111483     11.111483     22.222966
     -3.398398     12.210146     12.210146     24.420292
     -3.388388     12.835188     12.835188     25.670376
     -3.378378     13.155213     13.155213     26.310426
     -3.368368     13.544903     13.544903     27.089806
     -3.358358     14.465159     14.465159     28.930317
     -3.348348     16.311582     16.311582     32.623164
     -3.338338     19.284434     19.284434     38.568868
     -3.328328     23.311643     23.311643     46.623287
     -3.318318     28.028714     28.028714     56.057429
     -3.308308     32.809813     32.809813     65.619626
     -3.298298     36.854666     36.854666     73.709333
     -3.288288     39.341981     39.341981     78.683961
     -3.278278     39.637030     39.637030     79.274060
     -3.268268     37.494417     37.494417     74.988833
     -3.258258     33.165921     33.165921     66.331842
     -3.248248     27.346552     27.346552     54.693104
     -3.238238     20.967215     20.967215     41.934430
     -3.228228     14.921947     14.921947     29.843895
     -3.218218      9.846544      9.846544     19.693088
     -3.208208      6.027291      6.027291     12.054581
     -3.198198      3.445519      3.445519      6.891037
     -3.188188      1.905369      1.905369      3.810738
     -3.178178      1.176713      1.176713      2.353426
     -3.168168      1.105719      1.105719      2.211438
     -3.158158      1.675510      1.675510      3.351020
     -3.148148      3.016889      3.016889      6.033777
     -3.138138      5.370336      5.370336     10.740673
     -3.128128      8.997175      8.997175     17.994350
     -3.118118     14.045249     14.045249     28.090498
     -3.108108     20.398807     20.398807     40.797614
     -3.098098     27.572514     27.572514     55.145028
     -3.088088     34.720729     34.720729     69.441458
     -3.078078     40.802673     40.802673     81.605346
     -3.068068     44.872728     44.872728     89.745455
     -3.058058     46.387578     46.387578     92.775156
     -3.048048     45.390106     45.390106     90.780213
     -3.038038     42.475885     42.475885     84.951769
     -3.028028     38.553770     38.553770     77.107541
     -3.018018     34.515657     34.515657     69.031314
     -3.008008     30.968730     30.968730     61.937460
     -2.997998     28.137635     28.137635     56.275270
     -2.987988     25.949197     25.949197     51.898393
     -2.977978     24.227323     24.227323     48.454645
     -2.967968     22.890201     22.890201     45.780401
     -2.957958     22.058835     22.058835     44.117670
     -2.947948     22.034416     22.034416     44.068833
     -2.937938     23.158592     23.158592     46.317184
     -2.927928     25.618557     25.618557     51.237114
     -2.917918     29.284641     29.284641     58.569282
     -2.907908     33.660273     33.660273     67.320547
     -2.897898     37.980628     37.980628     75.961256
     -2.887888     41.431516     41.431516     82.863033
     -2.877878     43.403089     43.403089     86.806177
     -2.867868     43.672581     43.672581     87.345163
     -2.857858     42.439137     42.439137     84.878273
     -2.847848     40.199643     40.199643     80.399285
     -2.837838     37.526411     37.526411     75.052822
     -2.827828     34.850169     34.850169     69.700338
     -2.817818     32.344065     32.344065     64.688129
     -2.807808     29.950005     29.950005     59.900010
     -2.797798     27.515659     27.515659     55.031318
     -2.787788     24.956880     24.956880     49.913761
     -2.777778     22.354102     22.354102     44.708203
     -2.767768     19.934759     19.934759     39.869518
     -2.757758     17.962041     17.962041     35.924081
     -2.747748     16.604203     16.604203     33.208405
     -2.737738     15.867055     15.867055     31.734111
     -2.727728     15.629762     15.629762     31.259524
     -2.717718     15.756223     15.756223     31.512446
     -2.707708     16.203574     16.203574     32.407148
     -2.697698     17.049703     17.049703     34.099406
     -2.687688     18.415570     18.415570     36.831139
     -2.677678     20.331878     20.331878     40.663756
     -2.667668     22.643515     22.643515     45.287030
     -2.657658     25.026334     25.026334     50.052667
     -2.647648     27.118268     27.118268     54.236536
     -2.637638     28.688258     28.688258     57.376517
     -2.627628     29.737491     29.737491     59.474982
     -2.617618     30.470450     30.470450     60.940899
     -2.607608     31.158649     31.158649     62.317298
     -2.597598     31.985844     31.985844     63.971689
     -2.587588     32.963484     32.963484     65.926968
     -2.577578     33.944951     33.944951     67.889902
     -2.567568     34.699175     34.699175     69.398351
     -2.557558     34.982099     34.982099     69.964199
     -2.547548     34.577377     34.577377     69.154754
     -2.537538     33.325639     33.325639     66.651277
     -2.527528     31.175451     31.175451     62.350902
     -2.517518     28.256474     28.256474     56.512949
     -2.507508     24.929869     24.929869     49.859739
     -2.497497     21.758624     21.758624     43.517248
     -2.487487     19.377080     19.377080     38.754161
     -2.477477     18.299344     18.299344     36.598689
     -2.467467     18.748309     18.748309     37.496617
     -2.457457     20.584525     20.584525     41.169049
     -2.447447     23.370447     23.370447     46.740895
     -2.437437     26.544481     26.544481     53.088962
     -2.427427     29.629350     29.629350     59.258699
     -2.417417     32.382339     32.382339     64.764679
     -2.407407     34.819462     34.819462     69.638924
     -2.397397     37.103026     37.103026     74.206051
     -2.387387     39.347946     39.347946     78.695891
     -2.377377     41.445712     41.445712     82.891423
     -2.367367     43.003224     43.003224     86.006448
     -2.357357     43.443363     43.443363     86.886726
     -2.347347     42.235226     42.235226     84.470452
     -2.337337     39.152431     39.152431     78.304863
     -2.327327     34.436614     34.436614     68.873228
     -2.317317     28.786119     28.786119     57.572239
     -2.307307     23.174946     23.174946     46.349891
     -2.297297     18.584775     18.584775     37.169549
     -2.287287     15.760103     15.760103     31.520206
     -2.277277     15.065872     15.065872     30.131744
     -2.267267     16.467985     16.467985     32.935969
     -2.257257     19.608275     19.608275     39.216550
     -2.247247     23.926139     23.926139     47.852277
     -2.237237     28.783844     28.783844     57.567688
     -2.227227     33.566573     33.566573     67.133145
     -2.217217     37.743142     37.743142     75.486283
     -2.207207     40.889057     40.889057     81.778113
     -2.197197     42.689528     42.689528     85.379055
     -2.187187     42.948728     42.948728     85.897456
     -2.177177     41.622600     41.622600     83.245200
     -2.167167     38.865174     38.865174     77.730348
     -2.157157     35.049252     35.049252     70.098505
     -2.147147     30.717159     30.717159     61.434318
     -2.137137     26.449746     26.449746     52.899491
     -2.127127     22.696244     22.696244     45.392489
     -2.117117     19.645183     19.645183     39.290366
     -2.107107     17.205027     17.205027     34.410053
     -2.097097     15.104808     15.104808     30.209616
     -2.087087     13.057947     13.057947     26.115895
     -2.077077     10.901934     10.901934     21.803868
     -2.067067      8.650179      8.650179     17.300358
     -2.057057      6.449343      6.449343     12.898686
     -2.047047      4.485522      4.485522      8.971044
     -2.037037      2.897411      2.897411      5.794822
     -2.027027      1.734137      1.734137      3.468274
     -2.017017      0.961738      0.961738      1.923477
     -2.007007      0.498442      0.498442      0.996883
     -1.996997      0.254360      0.254360      0.508721
     -1.986987      0.160611      0.160611      0.321222
     -1.976977      0.185000      0.185000      0.369999
     -1.966967      0.338292      0.338292      0.676584
     -1.956957      0.674863      0.674863      1.349725
     -1.946947      1.287090      1.287090      2.574179
     -1.936937      2.288831      2.288831      4.577662
     -1.926927      3.783857      3.783857      7.567715
     -1.916917      5.821824      5.821824     11.643648
     -1.906907      8.354539      8.354539     16.709078
     -1.896897     11.212250     11.212250     22.424499
     -1.886887     14.116645     14.116645     28.233291
     -1.876877     16.733555     16.733555     33.467110
     -1.866867     18.751156     18.751156     37.502312
     -1.856857     19.958989     19.958989     39.917979
     -1.846847     20.303548     20.303548     40.607096
     -1.836837     19.903888     19.903888     39.807775
     -1.826827     19.020080     19.020080     38.040160
     -1.816817     17.978418     17.978418     35.956836
     -1.806807     17.072978     17.072978     34.145956
     -1.796797     16.479405     16.479405     32.958810
     -1.786787     16.219611     16.219611     32.439222
     -1.776777     16.194014     16.194014     32.388027
     -1.766767     16.258935     16.258935     32.517870
     -1.756757     16.298306     16.298306     32.596613
     -1.746747     16.246188     16.246188     32.492377
     -1.736737     16.057628     16.057628     32.115255
     -1.726727     15.668153     15.668153     31.336306
     -1.716717     14.991150     14.991150     29.982301
     -1.706707     13.969337     13.969337     27.938675
     -1.696697     12.648422     12.648422     25.296843
     -1.686687     11.216261     11.216261     22.432522
     -1.676677      9.967752      9.967752     19.935505
     -1.666667      9.200467      9.200467     18.400935
     -1.656657      9.087689      9.087689     18.175378
     -1.646647      9.590160      9.590160     19.180321
     -1.636637     10.451237     10.451237     20.902475
     -1.626627     11.283575     11.283575     22.567149
