# EIG2DOS: Utility for SIESTA to obtain the electronic density of states
#  E. Artacho, Apr 1999, A. Garcia, Apr 2012
#  Nick R. Papior, Feb 2017
# ------------------------------------------
# Eigenvalues calculated from a non-polarized calculation
# Eigenvalues read from siesta.EIG
# Kpoint weights read from siesta.KP
# Using smearing parameter:   0.0500
# Using 1000 points in the energy range
# Selected bands: 1 to: 2981
# Emin, Emax in file for selected band(s):    -27.0680720    218.3298660
# Nbands, Nspin, Nk   =   2981     1     1
# E_F                 =    -4.2771 eV --> (shifted to ZERO)
# Broadening          =     0.0500 eV
#
#        E            N(up)  (=)   N(down)         Ntot
     -5.000000     42.371073     42.371073     84.742145
     -4.989990     43.485252     43.485252     86.970504
     -4.979980     44.022052     44.022052     88.044103
     -4.969970     43.854795     43.854795     87.709589
     -4.959960     42.880861     42.880861     85.761722
     -4.949950     41.091267     41.091267     82.182533
     -4.939940     38.617819     38.617819     77.235638
     -4.929930     35.751949     35.751949     71.503898
     -4.919920     32.940071     32.940071     65.880142
     -4.909910     30.755474     30.755474     61.510947
     -4.899900     29.832073     29.832073     59.664145
     -4.889890     30.737983     30.737983     61.475966
     -4.879880     33.786462     33.786462     67.572924
     -4.869870     38.831674     38.831674     77.663348
     -4.859860     45.149194     45.149194     90.298388
     -4.849850     51.507753     51.507753    103.015505
     -4.839840     56.468954     56.468954    112.937907
     -4.829830     58.829412     58.829412    117.658824
     -4.819820     58.020256     58.020256    116.040513
     -4.809810     54.277491     54.277491    108.554982
     -4.799800     48.507011     48.507011     97.014023
     -4.789790     41.923934     41.923934     83.847868
     -4.779780     35.647846     35.647846     71.295691
     -4.769770     30.425567     30.425567     60.851134
     -4.759760     26.554244     26.554244     53.108489
     -4.749750     23.967161     23.967161     47.934323
     -4.739740     22.388709     22.388709     44.777417
     -4.729730     21.475308     21.475308     42.950616
     -4.719720     20.902967     20.902967     41.805934
     -4.709710     20.402310     20.402310     40.804621
     -4.699700     19.763387     19.763387     39.526773
     -4.689690     18.838108     18.838108     37.676216
     -4.679680     17.561769     17.561769     35.123538
     -4.669670     15.997495     15.997495     31.994989
     -4.659660     14.384247     14.384247     28.768495
     -4.649650     13.153283     13.153283     26.306566
     -4.639640     12.880801     12.880801     25.761603
     -4.629630     14.165392     14.165392     28.330783
     -4.619620     17.447864     17.447864     34.895729
     -4.609610     22.819086     22.819086     45.638171
     -4.599600     29.882437     29.882437     59.764874
     -4.589590     37.742413     37.742413     75.484826
     -4.579580     45.165409     45.165409     90.330819
     -4.569570     50.897185     50.897185    101.794369
     -4.559560     54.043380     54.043380    108.086761
     -4.549550     54.368104     54.368104    108.736208
     -4.539540     52.380305     52.380305    104.760609
     -4.529530     49.161607     49.161607     98.323214
     -4.519520     46.001414     46.001414     92.002828
     -4.509510     43.985558     43.985558     87.971115
     -4.499499     43.693091     43.693091     87.386182
     -4.489489     45.093748     45.093748     90.187497
     -4.479479     47.645042     47.645042     95.290083
     -4.469469     50.512893     50.512893    101.025786
     -4.459459     52.815869     52.815869    105.631738
     -4.449449     53.820074     53.820074    107.640147
     -4.439439     53.061128     53.061128    106.122257
     -4.429429     50.406131     50.406131    100.812262
     -4.419419     46.073426     46.073426     92.146852
     -4.409409     40.609642     40.609642     81.219283
     -4.399399     34.806942     34.806942     69.613885
     -4.389389     29.550313     29.550313     59.100625
     -4.379379     25.616086     25.616086     51.232173
     -4.369369     23.478994     23.478994     46.957988
     -4.359359     23.199210     23.199210     46.398420
     -4.349349     24.438647     24.438647     48.877294
     -4.339339     26.604611     26.604611     53.209222
     -4.329329     29.064542     29.064542     58.129084
     -4.319319     31.346779     31.346779     62.693559
     -4.309309     33.253965     33.253965     66.507930
     -4.299299     34.859309     34.859309     69.718618
     -4.289289     36.405107     36.405107     72.810215
     -4.279279     38.152233     38.152233     76.304466
     -4.269269     40.232214     40.232214     80.464427
     -4.259259     42.543346     42.543346     85.086692
     -4.249249     44.723981     44.723981     89.447962
     -4.239239     46.227341     46.227341     92.454682
     -4.229229     46.496261     46.496261     92.992522
     -4.219219     45.187432     45.187432     90.374865
     -4.209209     42.348247     42.348247     84.696495
     -4.199199     38.447965     38.447965     76.895930
     -4.189189     34.228517     34.228517     68.457035
     -4.179179     30.438059     30.438059     60.876117
     -4.169169     27.578088     27.578088     55.156175
     -4.159159     25.785714     25.785714     51.571428
     -4.149149     24.894039     24.894039     49.788079
     -4.139139     24.618236     24.618236     49.236471
     -4.129129     24.757545     24.757545     49.515091
     -4.119119     25.306353     25.306353     50.612707
     -4.109109     26.419075     26.419075     52.838149
     -4.099099     28.247280     28.247280     56.494560
     -4.089089     30.735198     30.735198     61.470395
     -4.079079     33.492986     33.492986     66.985972
     -4.069069     35.841780     35.841780     71.683561
     -4.059059     37.039558     37.039558     74.079115
     -4.049049     36.591024     36.591024     73.182047
     -4.039039     34.483478     34.483478     68.966955
     -4.029029     31.221369     31.221369     62.442737
     -4.019019     27.642689     27.642689     55.285378
     -4.009009     24.620327     24.620327     49.240653
     -3.998999     22.802832     22.802832     45.605665
     -3.988989     22.503472     22.503472     45.006943
     -3.978979     23.743883     23.743883     47.487765
     -3.968969     26.373535     26.373535     52.747069
     -3.958959     30.170841     30.170841     60.341682
     -3.948949     34.882093     34.882093     69.764186
     -3.938939     40.220089     40.220089     80.440177
     -3.928929     45.872321     45.872321     91.744642
     -3.918919     51.543325     51.543325    103.086650
     -3.908909     57.006678     57.006678    114.013356
     -3.898899     62.115409     62.115409    124.230817
     -3.888889     66.740003     66.740003    133.480007
     -3.878879     70.657129     70.657129    141.314259
     -3.868869     73.460379     73.460379    146.920758
     -3.858859     74.571140     74.571140    149.142280
     -3.848849     73.383473     73.383473    146.766946
     -3.838839     69.503232     69.503232    139.006464
     -3.828829     62.979389     62.979389    125.958777
     -3.818819     54.412479     54.412479    108.824958
     -3.808809     44.873143     44.873143     89.746287
     -3.798799     35.649001     35.649001     71.298002
     -3.788789     27.913994     27.913994     55.827988
     -3.778779     22.441299     22.441299     44.882598
     -3.768769     19.451409     19.451409     38.902817
     -3.758759     18.625820     18.625820     37.251641
     -3.748749     19.259242     19.259242     38.518484
     -3.738739     20.491068     20.491068     40.982136
     -3.728729     21.550660     21.550660     43.101321
     -3.718719     21.959470     21.959470     43.918940
     -3.708709     21.646432     21.646432     43.292864
     -3.698699     20.949158     20.949158     41.898316
     -3.688689     20.495118     20.495118     40.990236
     -3.678679     20.986338     20.986338     41.972676
     -3.668669     22.944180     22.944180     45.888361
     -3.658659     26.495524     26.495524     52.991049
     -3.648649     31.281401     31.281401     62.562803
     -3.638639     36.532713     36.532713     73.065426
     -3.628629     41.292170     41.292170     82.584340
     -3.618619     44.696707     44.696707     89.393414
     -3.608609     46.208361     46.208361     92.416721
     -3.598599     45.712717     45.712717     91.425435
     -3.588589     43.473642     43.473642     86.947283
     -3.578579     39.995598     39.995598     79.991196
     -3.568569     35.864176     35.864176     71.728352
     -3.558559     31.612631     31.612631     63.225263
     -3.548549     27.629555     27.629555     55.259109
     -3.538539     24.109248     24.109248     48.218496
     -3.528529     21.051450     21.051450     42.102899
     -3.518519     18.317899     18.317899     36.635798
     -3.508509     15.734551     15.734551     31.469101
     -3.498498     13.201004     13.201004     26.402008
     -3.488488     10.758450     10.758450     21.516899
     -3.478478      8.586817      8.586817     17.173633
     -3.468468      6.937855      6.937855     13.875711
     -3.458458      6.038166      6.038166     12.076331
     -3.448448      6.000679      6.000679     12.001359
     -3.438438      6.771234      6.771234     13.542467
     -3.428428      8.123646      8.123646     16.247292
     -3.418418      9.708435      9.708435     19.416870
     -3.408408     11.150658     11.150658     22.301315
     -3.398398     12.174505     12.174505     24.349009
     -3.388388     12.712151     12.712151     25.424302
     -3.378378     12.948809     12.948809     25.897618
     -3.368368     13.276846     13.276846     26.553691
     -3.358358     14.171618     14.171618     28.343236
     -3.348348     16.035954     16.035954     32.071909
     -3.338338     19.067121     19.067121     38.134243
     -3.328328     23.179209     23.179209     46.358419
     -3.318318     27.986354     27.986354     55.972707
     -3.308308     32.841134     32.841134     65.682269
     -3.298298     36.929942     36.929942     73.859884
     -3.288288     39.431305     39.431305     78.862610
     -3.278278     39.721593     39.721593     79.443187
     -3.268268     37.570180     37.570180     75.140361
     -3.258258     33.238929     33.238929     66.477858
     -3.248248     27.424221     27.424221     54.848443
     -3.238238     21.051542     21.051542     42.103085
     -3.228228     15.007964     15.007964     30.015929
     -3.218218      9.925164      9.925164     19.850328
     -3.208208      6.089029      6.089029     12.178059
     -3.198198      3.481654      3.481654      6.963309
     -3.188188      1.904879      1.904879      3.809758
     -3.178178      1.119220      1.119220      2.238440
     -3.168168      0.952085      0.952085      1.904170
     -3.158158      1.359262      1.359262      2.718525
     -3.148148      2.441904      2.441904      4.883808
     -3.138138      4.422199      4.422199      8.844398
     -3.128128      7.574554      7.574554     15.149107
     -3.118118     12.110472     12.110472     24.220945
     -3.108108     18.033732     18.033732     36.067463
     -3.098098     25.012892     25.012892     50.025785
     -3.088088     32.340355     32.340355     64.680710
     -3.078078     39.035459     39.035459     78.070917
     -3.068068     44.092538     44.092538     88.185076
     -3.058058     46.793999     46.793999     93.587997
     -3.048048     46.951950     46.951950     93.903900
     -3.038038     44.956010     44.956010     89.912021
     -3.028028     41.595146     41.595146     83.190291
     -3.018018     37.739322     37.739322     75.478645
     -3.008008     34.039171     34.039171     68.078342
     -2.997998     30.783390     30.783390     61.566779
     -2.987988     27.959199     27.959199     55.918397
     -2.977978     25.452186     25.452186     50.904372
     -2.967968     23.260318     23.260318     46.520635
     -2.957958     21.606930     21.606930     43.213861
     -2.947948     20.900501     20.900501     41.801002
     -2.937938     21.565697     21.565697     43.131394
     -2.927928     23.826351     23.826351     47.652701
     -2.917918     27.539074     27.539074     55.078147
     -2.907908     32.154881     32.154881     64.309761
     -2.897898     36.835215     36.835215     73.670431
     -2.887888     40.686365     40.686365     81.372730
     -2.877878     43.025580     43.025580     86.051161
     -2.867868     43.575124     43.575124     87.150248
     -2.857858     42.507438     42.507438     85.014877
     -2.847848     40.326894     40.326894     80.653789
     -2.837838     37.644288     37.644288     75.288576
     -2.827828     34.945825     34.945825     69.891651
     -2.817818     32.455962     32.455962     64.911925
     -2.807808     30.143651     30.143651     60.287303
     -2.797798     27.849265     27.849265     55.698530
     -2.787788     25.451767     25.451767     50.903533
     -2.777778     22.982335     22.982335     45.964669
     -2.767768     20.627857     20.627857     41.255714
     -2.757758     18.634322     18.634322     37.268645
     -2.747748     17.178180     17.178180     34.356360
     -2.737738     16.289428     16.289428     32.578856
     -2.727728     15.873787     15.873787     31.747573
     -2.717718     15.814692     15.814692     31.629383
     -2.707708     16.081159     16.081159     32.162318
     -2.697698     16.761654     16.761654     33.523308
     -2.687688     17.993223     17.993223     35.986447
     -2.677678     19.828741     19.828741     39.657482
     -2.667668     22.133443     22.133443     44.266886
     -2.657658     24.589585     24.589585     49.179169
     -2.647648     26.819437     26.819437     53.638875
     -2.637638     28.556643     28.556643     57.113285
     -2.627628     29.760186     29.760186     59.520373
     -2.617618     30.601264     30.601264     61.202528
     -2.607608     31.336920     31.336920     62.673841
     -2.597598     32.155254     32.155254     64.310507
     -2.587588     33.084221     33.084221     66.168442
     -2.577578     33.999154     33.999154     67.998307
     -2.567568     34.693067     34.693067     69.386135
     -2.557558     34.946171     34.946171     69.892342
     -2.547548     34.561821     34.561821     69.123642
     -2.537538     33.387719     33.387719     66.775438
     -2.527528     31.360267     31.360267     62.720534
     -2.517518     28.578636     28.578636     57.157272
     -2.507508     25.365078     25.365078     50.730155
     -2.497497     22.249148     22.249148     44.498297
     -2.487487     19.847422     19.847422     39.694845
     -2.477477     18.673733     18.673733     37.347465
     -2.467467     18.962894     18.962894     37.925789
     -2.457457     20.592212     20.592212     41.184423
     -2.447447     23.140903     23.140903     46.281807
     -2.437437     26.063347     26.063347     52.126694
     -2.427427     28.899358     28.899358     57.798717
     -2.417417     31.427072     31.427072     62.854145
     -2.407407     33.689099     33.689099     67.378198
     -2.397397     35.880258     35.880258     71.760516
     -2.387387     38.150405     38.150405     76.300809
     -2.377377     40.419328     40.419328     80.838655
     -2.367367     42.301430     42.301430     84.602859
     -2.357357     43.192266     43.192266     86.384532
     -2.347347     42.493811     42.493811     84.987622
     -2.337337     39.884139     39.884139     79.768277
     -2.327327     35.507814     35.507814     71.015627
     -2.317317     29.996328     29.996328     59.992657
     -2.307307     24.308654     24.308654     48.617308
     -2.297297     19.464750     19.464750     38.929500
     -2.287287     16.282841     16.282841     32.565683
     -2.277277     15.209762     15.209762     30.419523
     -2.267267     16.277020     16.277020     32.554040
     -2.257257     19.162640     19.162640     38.325280
     -2.247247     23.313423     23.313423     46.626846
     -2.237237     28.081715     28.081715     56.163429
     -2.227227     32.841036     32.841036     65.682071
     -2.217217     37.058200     37.058200     74.116400
     -2.207207     40.317142     40.317142     80.634284
     -2.197197     42.311413     42.311413     84.622826
     -2.187187     42.838054     42.838054     85.676108
     -2.177177     41.820498     41.820498     83.640997
     -2.167167     39.358440     39.358440     78.716879
     -2.157157     35.765768     35.765768     71.531536
     -2.147147     31.544154     31.544154     63.088307
     -2.137137     27.268429     27.268429     54.536859
     -2.127127     23.417458     23.417458     46.834915
     -2.117117     20.230193     20.230193     40.460386
     -2.107107     17.663792     17.663792     35.327585
     -2.097097     15.475856     15.475856     30.951712
     -2.087087     13.382401     13.382401     26.764802
     -2.077077     11.204733     11.204733     22.409465
     -2.067067      8.935039      8.935039     17.870077
     -2.057057      6.705503      6.705503     13.411007
     -2.047047      4.699121      4.699121      9.398243
     -2.037037      3.060425      3.060425      6.120850
     -2.027027      1.847567      1.847567      3.695134
     -2.017017      1.033822      1.033822      2.067643
     -2.007007      0.540743      0.540743      1.081486
     -1.996997      0.278405      0.278405      0.556810
     -1.986987      0.176330      0.176330      0.352660
     -1.976977      0.200890      0.200890      0.401780
     -1.966967      0.362422      0.362422      0.724844
     -1.956957      0.715586      0.715586      1.431172
     -1.946947      1.352409      1.352409      2.704817
     -1.936937      2.383765      2.383765      4.767531
     -1.926927      3.906136      3.906136      7.812272
     -1.916917      5.957638      5.957638     11.915276
     -1.906907      8.477345      8.477345     16.954690
     -1.896897     11.287473     11.287473     22.574947
     -1.886887     14.112837     14.112837     28.225675
     -1.876877     16.636691     16.636691     33.273383
     -1.866867     18.575523     18.575523     37.151046
     -1.856857     19.747951     19.747951     39.495903
     -1.846847     20.117219     20.117219     40.234438
     -1.836837     19.796369     19.796369     39.592738
     -1.826827     19.013036     19.013036     38.026071
     -1.816817     18.038098     18.038098     36.076197
     -1.806807     17.095197     17.095197     34.190395
     -1.796797     16.284674     16.284674     32.569348
     -1.786787     15.561599     15.561599     31.123198
     -1.776777     14.788502     14.788502     29.577005
     -1.766767     13.842731     13.842731     27.685463
     -1.756757     12.721227     12.721227     25.442455
     -1.746747     11.580299     11.580299     23.160598
     -1.736737     10.682245     10.682245     21.364491
     -1.726727     10.274065     10.274065     20.548130
     -1.716717     10.463064     10.463064     20.926128
     -1.706707     11.157018     11.157018     22.314036
     -1.696697     12.102051     12.102051     24.204102
     -1.686687     12.998676     12.998676     25.997353
     -1.676677     13.633502     13.633502     27.267003
     -1.666667     13.954703     13.954703     27.909406
     -1.656657     14.051218     14.051218     28.102435
     -1.646647     14.052662     14.052662     28.105324
     -1.636637     14.015606     14.015606     28.031213
     -1.626627     13.870283     13.870283     27.740566
