# EIG2DOS: Utility for SIESTA to obtain the electronic density of states
#  E. Artacho, Apr 1999, A. Garcia, Apr 2012
#  Nick R. Papior, Feb 2017
# ------------------------------------------
# Eigenvalues calculated from a non-polarized calculation
# Eigenvalues read from siesta.EIG
# Kpoint weights read from siesta.KP
# Using smearing parameter:   0.0500
# Using 1000 points in the energy range
# Selected bands: 1 to: 2981
# Emin, Emax in file for selected band(s):    -27.2502453    218.3998990
# Nbands, Nspin, Nk   =   2981     1     1
# E_F                 =    -4.1959 eV --> (shifted to ZERO)
# Broadening          =     0.0500 eV
#
#        E            N(up)  (=)   N(down)         Ntot
     -5.000000     31.549317     31.549317     63.098634
     -4.989990     36.655191     36.655191     73.310382
     -4.979980     41.499853     41.499853     82.999706
     -4.969970     45.245097     45.245097     90.490195
     -4.959960     47.177447     47.177447     94.354895
     -4.949950     46.946151     46.946151     93.892302
     -4.939940     44.685273     44.685273     89.370545
     -4.929930     40.984597     40.984597     81.969195
     -4.919920     36.743541     36.743541     73.487081
     -4.909910     32.975931     32.975931     65.951862
     -4.899900     30.618509     30.618509     61.237018
     -4.889890     30.359247     30.359247     60.718493
     -4.879880     32.484746     32.484746     64.969492
     -4.869870     36.766390     36.766390     73.532780
     -4.859860     42.438546     42.438546     84.877092
     -4.849850     48.325159     48.325159     96.650318
     -4.839840     53.120811     53.120811    106.241623
     -4.829830     55.751132     55.751132    111.502264
     -4.819820     55.678807     55.678807    111.357614
     -4.809810     53.029899     53.029899    106.059798
     -4.799800     48.492661     48.492661     96.985322
     -4.789790     43.044358     43.044358     86.088716
     -4.779780     37.631876     37.631876     75.263752
     -4.769770     32.933422     32.933422     65.866844
     -4.759760     29.269679     29.269679     58.539357
     -4.749750     26.654953     26.654953     53.309905
     -4.739740     24.925225     24.925225     49.850450
     -4.729730     23.869110     23.869110     47.738220
     -4.719720     23.310357     23.310357     46.620714
     -4.709710     23.126156     23.126156     46.252312
     -4.699700     23.217729     23.217729     46.435459
     -4.689690     23.469597     23.469597     46.939195
     -4.679680     23.736620     23.736620     47.473240
     -4.669670     23.881950     23.881950     47.763899
     -4.659660     23.859437     23.859437     47.718874
     -4.649650     23.802811     23.802811     47.605623
     -4.639640     24.065632     24.065632     48.131265
     -4.629630     25.162464     25.162464     50.324928
     -4.619620     27.597830     27.597830     55.195660
     -4.609610     31.627390     31.627390     63.254780
     -4.599600     37.050624     37.050624     74.101247
     -4.589590     43.150612     43.150612     86.301224
     -4.579580     48.849664     48.849664     97.699327
     -4.569570     53.050250     53.050250    106.100499
     -4.559560     55.028853     55.028853    110.057705
     -4.549550     54.707375     54.707375    109.414750
     -4.539540     52.674100     52.674100    105.348200
     -4.529530     49.941311     49.941311     99.882623
     -4.519520     47.547429     47.547429     95.094857
     -4.509510     46.175879     46.175879     92.351757
     -4.499499     45.944040     45.944040     91.888080
     -4.489489     46.430536     46.430536     92.861072
     -4.479479     46.903372     46.903372     93.806744
     -4.469469     46.633509     46.633509     93.267018
     -4.459459     45.159031     45.159031     90.318061
     -4.449449     42.406110     42.406110     84.812219
     -4.439439     38.649407     38.649407     77.298815
     -4.429429     34.367067     34.367067     68.734134
     -4.419419     30.079318     30.079318     60.158636
     -4.409409     26.241796     26.241796     52.483592
     -4.399399     23.211345     23.211345     46.422691
     -4.389389     21.250380     21.250380     42.500761
     -4.379379     20.520492     20.520492     41.040983
     -4.369369     21.044430     21.044430     42.088860
     -4.359359     22.662108     22.662108     45.324215
     -4.349349     25.031357     25.031357     50.062714
     -4.339339     27.706098     27.706098     55.412196
     -4.329329     30.275809     30.275809     60.551618
     -4.319319     32.506241     32.506241     65.012482
     -4.309309     34.411924     34.411924     68.823847
     -4.299299     36.220111     36.220111     72.440222
     -4.289289     38.233873     38.233873     76.467746
     -4.279279     40.644987     40.644987     81.289974
     -4.269269     43.371036     43.371036     86.742073
     -4.259259     45.991018     45.991018     91.982036
     -4.249249     47.826934     47.826934     95.653868
     -4.239239     48.164834     48.164834     96.329667
     -4.229229     46.541185     46.541185     93.082370
     -4.219219     42.972417     42.972417     85.944835
     -4.209209     38.013217     38.013217     76.026433
     -4.199199     32.601741     32.601741     65.203482
     -4.189189     27.752993     27.752993     55.505986
     -4.179179     24.235952     24.235952     48.471904
     -4.169169     22.372676     22.372676     44.745352
     -4.159159     22.030793     22.030793     44.061586
     -4.149149     22.786745     22.786745     45.573490
     -4.139139     24.165598     24.165598     48.331196
     -4.129129     25.842209     25.842209     51.684417
     -4.119119     27.717458     27.717458     55.434916
     -4.109109     29.844437     29.844437     59.688873
     -4.099099     32.250261     32.250261     64.500521
     -4.089089     34.754366     34.754366     69.508733
     -4.079079     36.896571     36.896571     73.793143
     -4.069069     38.040759     38.040759     76.081517
     -4.059059     37.626012     37.626012     75.252023
     -4.049049     35.445864     35.445864     70.891727
     -4.039039     31.807629     31.807629     63.615259
     -4.029029     27.482401     27.482401     54.964802
     -4.019019     23.468127     23.468127     46.936255
     -4.009009     20.682382     20.682382     41.364764
     -3.998999     19.722332     19.722332     39.444664
     -3.988989     20.774269     20.774269     41.548538
     -3.978979     23.668739     23.668739     47.337478
     -3.968969     28.015073     28.015073     56.030146
     -3.958959     33.339510     33.339510     66.679019
     -3.948949     39.183963     39.183963     78.367927
     -3.938939     45.163302     45.163302     90.326604
     -3.928929     50.996666     50.996666    101.993332
     -3.918919     56.517203     56.517203    113.034406
     -3.908909     61.645939     61.645939    123.291878
     -3.898899     66.317025     66.317025    132.634049
     -3.888889     70.371022     70.371022    140.742044
     -3.878879     73.469163     73.469163    146.938327
     -3.868869     75.092085     75.092085    150.184169
     -3.858859     74.655126     74.655126    149.310252
     -3.848849     71.712949     71.712949    143.425898
     -3.838839     66.173504     66.173504    132.347007
     -3.828829     58.426449     58.426449    116.852898
     -3.818819     49.322621     49.322621     98.645243
     -3.808809     40.002057     40.002057     80.004115
     -3.798799     31.627651     31.627651     63.255302
     -3.788789     25.113201     25.113201     50.226401
     -3.778779     20.928911     20.928911     41.857823
     -3.768769     19.033645     19.033645     38.067289
     -3.758759     18.940256     18.940256     37.880511
     -3.748749     19.884934     19.884934     39.769868
     -3.738739     21.051005     21.051005     42.102010
     -3.728729     21.791383     21.791383     43.582767
     -3.718719     21.797802     21.797802     43.595605
     -3.708709     21.176173     21.176173     42.352346
     -3.698699     20.405317     20.405317     40.810633
     -3.688689     20.181353     20.181353     40.362706
     -3.678679     21.181290     21.181290     42.362579
     -3.668669     23.810903     23.810903     47.621805
     -3.658659     28.021063     28.021063     56.042126
     -3.648649     33.267278     33.267278     66.534557
     -3.638639     38.641392     38.641392     77.282783
     -3.628629     43.134527     43.134527     86.269054
     -3.618619     45.930477     45.930477     91.860955
     -3.608609     46.615598     46.615598     93.231197
     -3.598599     45.236193     45.236193     90.472386
     -3.588589     42.209837     42.209837     84.419675
     -3.578579     38.155249     38.155249     76.310498
     -3.568569     33.715631     33.715631     67.431263
     -3.558559     29.421833     29.421833     58.843665
     -3.548549     25.608616     25.608616     51.217233
     -3.538539     22.384599     22.384599     44.769199
     -3.528529     19.659043     19.659043     39.318086
     -3.518519     17.224702     17.224702     34.449403
     -3.508509     14.875392     14.875392     29.750785
     -3.498498     12.514274     12.514274     25.028548
     -3.488488     10.207130     10.207130     20.414261
     -3.478478      8.160772      8.160772     16.321544
     -3.468468      6.642724      6.642724     13.285447
     -3.458458      5.880485      5.880485     11.760969
     -3.448448      5.977574      5.977574     11.955148
     -3.438438      6.869407      6.869407     13.738815
     -3.428428      8.329763      8.329763     16.659526
     -3.418418     10.031566     10.031566     20.063131
     -3.408408     11.655219     11.655219     23.310438
     -3.398398     13.017273     13.017273     26.034546
     -3.388388     14.170084     14.170084     28.340167
     -3.378378     15.419077     15.419077     30.838154
     -3.368368     17.231334     17.231334     34.462668
     -3.358358     20.058716     20.058716     40.117432
     -3.348348     24.142333     24.142333     48.284666
     -3.338338     29.375450     29.375450     58.750899
     -3.328328     35.273484     35.273484     70.546968
     -3.318318     41.053653     41.053653     82.107306
     -3.308308     45.792430     45.792430     91.584859
     -3.298298     48.619861     48.619861     97.239723
     -3.288288     48.914644     48.914644     97.829287
     -3.278278     46.463374     46.463374     92.926749
     -3.268268     41.539409     41.539409     83.078818
     -3.258258     34.861132     34.861132     69.722264
     -3.248248     27.424625     27.424625     54.849249
     -3.238238     20.261177     20.261177     40.522354
     -3.228228     14.208610     14.208610     28.417219
     -3.218218      9.775518      9.775518     19.551036
     -3.208208      7.124361      7.124361     14.248721
     -3.198198      6.141016      6.141016     12.282032
     -3.188188      6.533690      6.533690     13.067380
     -3.178178      7.921417      7.921417     15.842834
     -3.168168      9.907487      9.907487     19.814974
     -3.158158     12.152144     12.152144     24.304287
     -3.148148     14.446521     14.446521     28.893041
     -3.138138     16.760407     16.760407     33.520814
     -3.128128     19.221983     19.221983     38.443967
     -3.118118     22.010710     22.010710     44.021419
     -3.108108     25.197483     25.197483     50.394965
     -3.098098     28.613050     28.613050     57.226099
     -3.088088     31.827676     31.827676     63.655351
     -3.078078     34.271428     34.271428     68.542856
     -3.068068     35.444149     35.444149     70.888298
     -3.058058     35.108395     35.108395     70.216790
     -3.048048     33.365595     33.365595     66.731191
     -3.038038     30.583190     30.583190     61.166381
     -3.028028     27.225885     27.225885     54.451770
     -3.018018     23.692761     23.692761     47.385521
     -3.008008     20.245167     20.245167     40.490335
     -2.997998     17.044291     17.044291     34.088583
     -2.987988     14.249469     14.249469     28.498938
     -2.977978     12.100948     12.100948     24.201896
     -2.967968     10.932328     10.932328     21.864657
     -2.957958     11.103809     11.103809     22.207619
     -2.947948     12.885609     12.885609     25.771218
     -2.937938     16.336389     16.336389     32.672779
     -2.927928     21.219304     21.219304     42.438608
     -2.917918     26.988748     26.988748     53.977497
     -2.907908     32.866419     32.866419     65.732838
     -2.897898     38.001479     38.001479     76.002958
     -2.887888     41.676933     41.676933     83.353867
     -2.877878     43.495276     43.495276     86.990551
     -2.867868     43.470544     43.470544     86.941089
     -2.857858     41.983022     41.983022     83.966044
     -2.847848     39.609681     39.609681     79.219361
     -2.837838     36.901622     36.901622     73.803245
     -2.827828     34.206925     34.206925     68.413850
     -2.817818     31.615048     31.615048     63.230096
     -2.807808     29.036175     29.036175     58.072350
     -2.797798     26.359035     26.359035     52.718070
     -2.787788     23.593055     23.593055     47.186111
     -2.777778     20.916291     20.916291     41.832583
     -2.767768     18.609708     18.609708     37.219417
     -2.757758     16.925918     16.925918     33.851837
     -2.747748     15.976809     15.976809     31.953617
     -2.737738     15.708335     15.708335     31.416670
     -2.727728     15.972102     15.972102     31.944204
     -2.717718     16.638890     16.638890     33.277779
     -2.707708     17.671226     17.671226     35.342453
     -2.697698     19.101371     19.101371     38.202742
     -2.687688     20.930470     20.930470     41.860940
     -2.677678     23.026888     23.026888     46.053776
     -2.667668     25.110217     25.110217     50.220435
     -2.657658     26.851346     26.851346     53.702691
     -2.647648     28.035063     28.035063     56.070127
     -2.637638     28.680773     28.680773     57.361547
     -2.627628     29.038452     29.038452     58.076903
     -2.617618     29.457512     29.457512     58.915024
     -2.607608     30.207320     30.207320     60.414640
     -2.597598     31.351712     31.351712     62.703424
     -2.587588     32.733551     32.733551     65.467102
     -2.577578     34.050298     34.050298     68.100595
     -2.567568     34.956493     34.956493     69.912986
     -2.557558     35.141358     35.141358     70.282717
     -2.547548     34.376191     34.376191     68.752381
     -2.537538     32.558503     32.558503     65.117007
     -2.527528     29.769473     29.769473     59.538946
     -2.517518     26.322939     26.322939     52.645878
     -2.507508     22.758508     22.758508     45.517016
     -2.497497     19.745764     19.745764     39.491527
     -2.487487     17.913330     17.913330     35.826660
     -2.477477     17.662647     17.662647     35.325295
     -2.467467     19.042526     19.042526     38.085052
     -2.457457     21.739392     21.739392     43.478783
     -2.447447     25.191964     25.191964     50.383928
     -2.437437     28.788098     28.788098     57.576195
     -2.427427     32.065273     32.065273     64.130546
     -2.417417     34.830269     34.830269     69.660537
     -2.407407     37.144529     37.144529     74.289059
     -2.397397     39.181222     39.181222     78.362445
     -2.387387     41.023565     41.023565     82.047131
     -2.377377     42.510230     42.510230     85.020461
     -2.367367     43.219233     43.219233     86.438466
     -2.357357     42.616552     42.616552     85.233103
     -2.347347     40.308570     40.308570     80.617140
     -2.337337     36.276033     36.276033     72.552065
     -2.327327     30.970658     30.970658     61.941316
     -2.317317     25.225533     25.225533     50.451065
     -2.307307     20.024779     20.024779     40.049559
     -2.297297     16.239171     16.239171     32.478341
     -2.287287     14.431001     14.431001     28.862002
     -2.277277     14.778051     14.778051     29.556101
     -2.267267     17.105265     17.105265     34.210530
     -2.257257     20.978539     20.978539     41.957078
     -2.247247     25.814213     25.814213     51.628427
     -2.237237     30.975308     30.975308     61.950617
     -2.227227     35.843836     35.843836     71.687673
     -2.217217     39.870499     39.870499     79.740998
     -2.207207     42.610041     42.610041     85.220081
     -2.197197     43.753993     43.753993     87.507986
     -2.187187     43.169712     43.169712     86.339423
     -2.177177     40.941777     40.941777     81.883553
     -2.167167     37.392662     37.392662     74.785324
     -2.157157     33.048626     33.048626     66.097251
     -2.147147     28.530728     28.530728     57.061456
     -2.137137     24.391018     24.391018     48.782035
     -2.127127     20.957100     20.957100     41.914199
     -2.117117     18.260336     18.260336     36.520671
     -2.107107     16.087124     16.087124     32.174247
     -2.097097     14.127809     14.127809     28.255618
     -2.087087     12.146424     12.146424     24.292849
     -2.077077     10.090153     10.090153     20.180306
     -2.067067      8.099120      8.099120     16.198240
     -2.057057      6.432476      6.432476     12.864951
     -2.047047      5.359667      5.359667     10.719334
     -2.037037      5.063387      5.063387     10.126774
     -2.027027      5.577570      5.577570     11.155140
     -2.017017      6.764343      6.764343     13.528686
     -2.007007      8.329697      8.329697     16.659394
     -1.996997      9.880898      9.880898     19.761796
     -1.986987     11.023672     11.023672     22.047345
     -1.976977     11.478882     11.478882     22.957763
     -1.966967     11.178808     11.178808     22.357615
     -1.956957     10.300952     10.300952     20.601904
     -1.946947      9.219671      9.219671     18.439342
     -1.936937      8.391233      8.391233     16.782466
     -1.926927      8.214867      8.214867     16.429733
     -1.916917      8.917452      8.917452     17.834904
     -1.906907     10.494860     10.494860     20.989719
     -1.896897     12.720377     12.720377     25.440754
     -1.886887     15.210668     15.210668     30.421337
     -1.876877     17.526655     17.526655     35.053310
     -1.866867     19.281399     19.281399     38.562797
     -1.856857     20.229004     20.229004     40.458009
     -1.846847     20.315344     20.315344     40.630688
     -1.836837     19.679293     19.679293     39.358585
     -1.826827     18.600980     18.600980     37.201960
     -1.816817     17.405069     17.405069     34.810138
     -1.806807     16.345017     16.345017     32.690033
     -1.796797     15.511546     15.511546     31.023093
     -1.786787     14.809101     14.809101     29.618201
     -1.776777     14.017344     14.017344     28.034688
     -1.766767     12.910858     12.910858     25.821717
     -1.756757     11.376882     11.376882     22.753763
     -1.746747      9.472811      9.472811     18.945622
     -1.736737      7.402090      7.402090     14.804179
     -1.726727      5.433516      5.433516     10.867032
     -1.716717      3.814187      3.814187      7.628375
     -1.706707      2.717501      2.717501      5.435001
     -1.696697      2.236402      2.236402      4.472804
     -1.686687      2.402076      2.402076      4.804152
     -1.676677      3.197680      3.197680      6.395360
     -1.666667      4.548821      4.548821      9.097642
     -1.656657      6.297102      6.297102     12.594204
     -1.646647      8.184139      8.184139     16.368279
     -1.636637      9.876787      9.876787     19.753575
     -1.626627     11.045406     11.045406     22.090812
