# EIG2DOS: Utility for SIESTA to obtain the electronic density of states
#  E. Artacho, Apr 1999, A. Garcia, Apr 2012
#  Nick R. Papior, Feb 2017
# ------------------------------------------
# Eigenvalues calculated from a non-polarized calculation
# Eigenvalues read from siesta.EIG
# Kpoint weights read from siesta.KP
# Using smearing parameter:   0.0500
# Using 1000 points in the energy range
# Selected bands: 1 to: 2981
# Emin, Emax in file for selected band(s):    -27.2906088    218.3998780
# Nbands, Nspin, Nk   =   2981     1     1
# E_F                 =    -4.1927 eV --> (shifted to ZERO)
# Broadening          =     0.0500 eV
#
#        E            N(up)  (=)   N(down)         Ntot
     -5.000000     31.568848     31.568848     63.137695
     -4.989990     36.865918     36.865918     73.731837
     -4.979980     41.892084     41.892084     83.784168
     -4.969970     45.756549     45.756549     91.513098
     -4.959960     47.711401     47.711401     95.422801
     -4.949950     47.403338     47.403338     94.806676
     -4.939940     44.996592     44.996592     89.993183
     -4.929930     41.132208     41.132208     82.264417
     -4.919920     36.763664     36.763664     73.527328
     -4.909910     32.943671     32.943671     65.887342
     -4.899900     30.619971     30.619971     61.239942
     -4.889890     30.458936     30.458936     60.917871
     -4.879880     32.698132     32.698132     65.396263
     -4.869870     37.048227     37.048227     74.096454
     -4.859860     42.694507     42.694507     85.389015
     -4.849850     48.445756     48.445756     96.891511
     -4.839840     53.025272     53.025272    106.050543
     -4.829830     55.421963     55.421963    110.843926
     -4.819820     55.171096     55.171096    110.342191
     -4.809810     52.452438     52.452438    104.904875
     -4.799800     47.972998     47.972998     95.945995
     -4.789790     42.697689     42.697689     85.395379
     -4.779780     37.550262     37.550262     75.100524
     -4.769770     33.200149     33.200149     66.400298
     -4.759760     29.990121     29.990121     59.980243
     -4.749750     27.984736     27.984736     55.969471
     -4.739740     27.071348     27.071348     54.142697
     -4.729730     27.042793     27.042793     54.085586
     -4.719720     27.626214     27.626214     55.252428
     -4.709710     28.471938     28.471938     56.943876
     -4.699700     29.151888     29.151888     58.303775
     -4.689690     29.217981     29.217981     58.435962
     -4.679680     28.333433     28.333433     56.666866
     -4.669670     26.434216     26.434216     52.868431
     -4.659660     23.840492     23.840492     47.680983
     -4.649650     21.246216     21.246216     42.492431
     -4.639640     19.565557     19.565557     39.131114
     -4.629630     19.675772     19.675772     39.351543
     -4.619620     22.135627     22.135627     44.271255
     -4.609610     26.967050     26.967050     53.934101
     -4.599600     33.574368     33.574368     67.148736
     -4.589590     40.846610     40.846610     81.693220
     -4.579580     47.439526     47.439526     94.879053
     -4.569570     52.166476     52.166476    104.332953
     -4.559560     54.366249     54.366249    108.732498
     -4.549550     54.101985     54.101985    108.203970
     -4.539540     52.102191     52.102191    104.204382
     -4.529530     49.462563     49.462563     98.925127
     -4.519520     47.231080     47.231080     94.462161
     -4.509510     46.044830     46.044830     92.089660
     -4.499499     45.955418     45.955418     91.910836
     -4.489489     46.491614     46.491614     92.983227
     -4.479479     46.907773     46.907773     93.815546
     -4.469469     46.498566     46.498566     92.997133
     -4.459459     44.849815     44.849815     89.699631
     -4.449449     41.940416     41.940416     83.880832
     -4.439439     38.086200     38.086200     76.172400
     -4.429429     33.785807     33.785807     67.571614
     -4.419419     29.558557     29.558557     59.117114
     -4.409409     25.843282     25.843282     51.686565
     -4.399399     22.972117     22.972117     45.944234
     -4.389389     21.181813     21.181813     42.363626
     -4.379379     20.611585     20.611585     41.223171
     -4.369369     21.267202     21.267202     42.534403
     -4.359359     22.978659     22.978659     45.957319
     -4.349349     25.403127     25.403127     50.806253
     -4.339339     28.104792     28.104792     56.209583
     -4.329329     30.693162     30.693162     61.386324
     -4.319319     32.957875     32.957875     65.915751
     -4.309309     34.931009     34.931009     69.862018
     -4.299299     36.839806     36.839806     73.679612
     -4.289289     38.962660     38.962660     77.925321
     -4.279279     41.444017     41.444017     82.888033
     -4.269269     44.144892     44.144892     88.289783
     -4.259259     46.600661     46.600661     93.201321
     -4.249249     48.125294     48.125294     96.250587
     -4.239239     48.044292     48.044292     96.088584
     -4.229229     45.973972     45.973972     91.947944
     -4.219219     42.025649     42.025649     84.051297
     -4.209209     36.831222     36.831222     73.662443
     -4.199199     31.363801     31.363801     62.727603
     -4.189189     26.625410     26.625410     53.250820
     -4.179179     23.337360     23.337360     46.674720
     -4.169169     21.762127     21.762127     43.524255
     -4.159159     21.716431     21.716431     43.432862
     -4.149149     22.745564     22.745564     45.491128
     -4.139139     24.363670     24.363670     48.727341
     -4.129129     26.247405     26.247405     52.494811
     -4.119119     28.300385     28.300385     56.600770
     -4.109109     30.567741     30.567741     61.135482
     -4.099099     33.052189     33.052189     66.104379
     -4.089089     35.537840     35.537840     71.075680
     -4.079079     37.535588     37.535588     75.071176
     -4.069069     38.408385     38.408385     76.816771
     -4.059059     37.635090     37.635090     75.270179
     -4.049049     35.083347     35.083347     70.166694
     -4.039039     31.144405     31.144405     62.288810
     -4.029029     26.653107     26.653107     53.306213
     -4.019019     22.631469     22.631469     45.262937
     -4.009009     19.980908     19.980908     39.961816
     -3.998999     19.256853     19.256853     38.513707
     -3.988989     20.596700     20.596700     41.193400
     -3.978979     23.787282     23.787282     47.574564
     -3.968969     28.403367     28.403367     56.806734
     -3.958959     33.945698     33.945698     67.891396
     -3.948949     39.940759     39.940759     79.881517
     -3.938939     46.000959     46.000959     92.001917
     -3.928929     51.856894     51.856894    103.713787
     -3.918919     57.361620     57.361620    114.723240
     -3.908909     62.452698     62.452698    124.905396
     -3.898899     67.065296     67.065296    134.130592
     -3.888889     71.021587     71.021587    142.043175
     -3.878879     73.954238     73.954238    147.908477
     -3.868869     75.324317     75.324317    150.648634
     -3.858859     74.555456     74.555456    149.110911
     -3.848849     71.245703     71.245703    142.491406
     -3.838839     65.371739     65.371739    130.743478
     -3.828829     57.394493     57.394493    114.788986
     -3.818819     48.213536     48.213536     96.427072
     -3.808809     38.978925     38.978925     77.957851
     -3.798799     30.823301     30.823301     61.646602
     -3.788789     24.601422     24.601422     49.202844
     -3.778779     20.713943     20.713943     41.427887
     -3.768769     19.057920     19.057920     38.115839
     -3.758759     19.105845     19.105845     38.211689
     -3.748749     20.082202     20.082202     40.164405
     -3.738739     21.187630     21.187630     42.375260
     -3.728729     21.815333     21.815333     43.630667
     -3.718719     21.709101     21.709101     43.418202
     -3.708709     21.024511     21.024511     42.049022
     -3.698699     20.273688     20.273688     40.547375
     -3.688689     20.159479     20.159479     40.318958
     -3.678679     21.335848     21.335848     42.671696
     -3.668669     24.161529     24.161529     48.323057
     -3.658659     28.530443     28.530443     57.060886
     -3.648649     33.849545     33.849545     67.699089
     -3.638639     39.186300     39.186300     78.372599
     -3.628629     43.538436     43.538436     87.076872
     -3.618619     46.122614     46.122614     92.245229
     -3.608609     46.571165     46.571165     93.142331
     -3.598599     44.974644     44.974644     89.949288
     -3.588589     41.782742     41.782742     83.565484
     -3.578579     37.630231     37.630231     75.260462
     -3.568569     33.161079     33.161079     66.322157
     -3.558559     28.894394     28.894394     57.788787
     -3.548549     25.144462     25.144462     50.288925
     -3.538539     21.995982     21.995982     43.991965
     -3.528529     19.337648     19.337648     38.675296
     -3.518519     16.951282     16.951282     33.902564
     -3.508509     14.632155     14.632155     29.264311
     -3.498498     12.294978     12.294978     24.589955
     -3.488488     10.021414     10.021414     20.042829
     -3.478478      8.033028      8.033028     16.066055
     -3.468468      6.609378      6.609378     13.218757
     -3.458458      5.990986      5.990986     11.981972
     -3.448448      6.303038      6.303038     12.606075
     -3.438438      7.519118      7.519118     15.038236
     -3.428428      9.469481      9.469481     18.938962
     -3.418418     11.889610     11.889610     23.779219
     -3.408408     14.496270     14.496270     28.992540
     -3.398398     17.067219     17.067219     34.134438
     -3.388388     19.494801     19.494801     38.989601
     -3.378378     21.793321     21.793321     43.586642
     -3.368368     24.063693     24.063693     48.127387
     -3.358358     26.439204     26.439204     52.878408
     -3.348348     29.035667     29.035667     58.071335
     -3.338338     31.909168     31.909168     63.818336
     -3.328328     35.007890     35.007890     70.015780
     -3.318318     38.114299     38.114299     76.228598
     -3.308308     40.807266     40.807266     81.614532
     -3.298298     42.498112     42.498112     84.996224
     -3.288288     42.574982     42.574982     85.149963
     -3.278278     40.625308     40.625308     81.250617
     -3.268268     36.639329     36.639329     73.278659
     -3.258258     31.084343     31.084343     62.168686
     -3.248248     24.799096     24.799096     49.598191
     -3.238238     18.752725     18.752725     37.505451
     -3.228228     13.777673     13.777673     27.555346
     -3.218218     10.381600     10.381600     20.763200
     -3.208208      8.685063      8.685063     17.370125
     -3.198198      8.469360      8.469360     16.938719
     -3.188188      9.291074      9.291074     18.582148
     -3.178178     10.626376     10.626376     21.252752
     -3.168168     12.021614     12.021614     24.043228
     -3.158158     13.224901     13.224901     26.449803
     -3.148148     14.260260     14.260260     28.520521
     -3.138138     15.404476     15.404476     30.808953
     -3.128128     17.054546     17.054546     34.109092
     -3.118118     19.523781     19.523781     39.047562
     -3.108108     22.849088     22.849088     45.698175
     -3.098098     26.700639     26.700639     53.401278
     -3.088088     30.446592     30.446592     60.893184
     -3.078078     33.354730     33.354730     66.709461
     -3.068068     34.844986     34.844986     69.689971
     -3.058058     34.678839     34.678839     69.357678
     -3.048048     33.002392     33.002392     66.004785
     -3.038038     30.235836     30.235836     60.471671
     -3.028028     26.880978     26.880978     53.761956
     -3.018018     23.353850     23.353850     46.707700
     -3.008008     19.921037     19.921037     39.842074
     -2.997998     16.747976     16.747976     33.495952
     -2.987988     14.002351     14.002351     28.004703
     -2.977978     11.934621     11.934621     23.869242
     -2.967968     10.884211     10.884211     21.768422
     -2.957958     11.207140     11.207140     22.414280
     -2.947948     13.157381     13.157381     26.314763
     -2.937938     16.767457     16.767457     33.534914
     -2.927928     21.770109     21.770109     43.540219
     -2.917918     27.592816     27.592816     55.185631
     -2.907908     33.441897     33.441897     66.883793
     -2.897898     38.468566     38.468566     76.937131
     -2.887888     41.976492     41.976492     83.952984
     -2.877878     43.602578     43.602578     87.205155
     -2.867868     43.398964     43.398964     86.797928
     -2.857858     41.775856     41.775856     83.551712
     -2.847848     39.323040     39.323040     78.646079
     -2.837838     36.585409     36.585409     73.170819
     -2.827828     33.892035     33.892035     67.784070
     -2.817818     31.311943     31.311943     62.623886
     -2.807808     28.744075     28.744075     57.488151
     -2.797798     26.079289     26.079289     52.158579
     -2.787788     23.338271     23.338271     46.676542
     -2.777778     20.709947     20.709947     41.419894
     -2.767768     18.477385     18.477385     36.954770
     -2.757758     16.884956     16.884956     33.769911
     -2.747748     16.032209     16.032209     32.064417
     -2.737738     15.858049     15.858049     31.716099
     -2.727728     16.217253     16.217253     32.434505
     -2.717718     16.989262     16.989262     33.978524
     -2.707708     18.138133     18.138133     36.276266
     -2.697698     19.678834     19.678834     39.357668
     -2.687688     21.576256     21.576256     43.152512
     -2.677678     23.659173     23.659173     47.318346
     -2.667668     25.628632     25.628632     51.257264
     -2.657658     27.175865     27.175865     54.351731
     -2.647648     28.142713     28.142713     56.285426
     -2.637638     28.618692     28.618692     57.237384
     -2.627628     28.904703     28.904703     57.809405
     -2.617618     29.359745     29.359745     58.719490
     -2.607608     30.221036     30.221036     60.442071
     -2.597598     31.497056     31.497056     62.994113
     -2.587588     32.976025     32.976025     65.952051
     -2.577578     34.317628     34.317628     68.635256
     -2.567568     35.160076     35.160076     70.320151
     -2.557558     35.195961     35.195961     70.391922
     -2.547548     34.218257     34.218257     68.436515
     -2.537538     32.164333     32.164333     64.328666
     -2.527528     29.169648     29.169648     58.339295
     -2.517518     25.604912     25.604912     51.209825
     -2.507508     22.051104     22.051104     44.102207
     -2.497497     19.187383     19.187383     38.374765
     -2.487487     17.614284     17.614284     35.228568
     -2.477477     17.675426     17.675426     35.350853
     -2.467467     19.350369     19.350369     38.700739
     -2.457457     22.265956     22.265956     44.531911
     -2.447447     25.827232     25.827232     51.654465
     -2.437437     29.420712     29.420712     58.841424
     -2.427427     32.610227     32.610227     65.220455
     -2.417417     35.243299     35.243299     70.486598
     -2.407407     37.419594     37.419594     74.839188
     -2.397397     39.333714     39.333714     78.667429
     -2.387387     41.067487     41.067487     82.134974
     -2.377377     42.440510     42.440510     84.881020
     -2.367367     43.008784     43.008784     86.017567
     -2.357357     42.230895     42.230895     84.461790
     -2.347347     39.731199     39.731199     79.462399
     -2.337337     35.530580     35.530580     71.061161
     -2.327327     30.126667     30.126667     60.253333
     -2.317317     24.383635     24.383635     48.767269
     -2.307307     19.288691     19.288691     38.577382
     -2.297297     15.688415     15.688415     31.376830
     -2.287287     14.106016     14.106016     28.212031
     -2.277277     14.681103     14.681103     29.362207
     -2.267267     17.212375     17.212375     34.424750
     -2.257257     21.253871     21.253871     42.507741
     -2.247247     26.219683     26.219683     52.439366
     -2.237237     31.472361     31.472361     62.944723
     -2.227227     36.388987     36.388987     72.777974
     -2.217217     40.409647     40.409647     80.819295
     -2.207207     43.077676     43.077676     86.155351
     -2.197197     44.081489     44.081489     88.162978
     -2.187187     43.302188     43.302188     86.604375
     -2.177177     40.857224     40.857224     81.714448
     -2.167167     37.113494     37.113494     74.226987
     -2.157157     32.637547     32.637547     65.275095
     -2.147147     28.070139     28.070139     56.140278
     -2.137137     23.954398     23.954398     47.908796
     -2.127127     20.586154     20.586154     41.172308
     -2.117117     17.959158     17.959158     35.918316
     -2.107107     15.835578     15.835578     31.671156
     -2.097097     13.906472     13.906472     27.812944
     -2.087087     11.960683     11.960683     23.921367
     -2.077077      9.983169      9.983169     19.966339
     -2.067067      8.149173      8.149173     16.298347
     -2.057057      6.735079      6.735079     13.470159
     -2.047047      5.997185      5.997185     11.994370
     -2.037037      6.067005      6.067005     12.134010
     -2.027027      6.891370      6.891370     13.782741
     -2.017017      8.227497      8.227497     16.454994
     -2.007007      9.693762      9.693762     19.387524
     -1.996997     10.868364     10.868364     21.736728
     -1.986987     11.412890     11.412890     22.825781
     -1.976977     11.181381     11.181381     22.362762
     -1.966967     10.272678     10.272678     20.545356
     -1.956957      9.003290      9.003290     18.006580
     -1.946947      7.811253      7.811253     15.622505
     -1.936937      7.128453      7.128453     14.256905
     -1.926927      7.264939      7.264939     14.529877
     -1.916917      8.335602      8.335602     16.671204
     -1.906907     10.240358     10.240358     20.480716
     -1.896897     12.694600     12.694600     25.389199
     -1.886887     15.298689     15.298689     30.597378
     -1.876877     17.629925     17.629925     35.259850
     -1.866867     19.336530     19.336530     38.673060
     -1.856857     20.212937     20.212937     40.425875
     -1.846847     20.239721     20.239721     40.479441
     -1.836837     19.577538     19.577538     39.155076
     -1.826827     18.511668     18.511668     37.023336
     -1.816817     17.355453     17.355453     34.710905
     -1.806807     16.339245     16.339245     32.678489
     -1.796797     15.527915     15.527915     31.055831
     -1.786787     14.808255     14.808255     29.616509
     -1.776777     13.958688     13.958688     27.917375
     -1.766767     12.769986     12.769986     25.539972
     -1.756757     11.155843     11.155843     22.311687
     -1.746747      9.198773      9.198773     18.397545
     -1.736737      7.116245      7.116245     14.232490
     -1.726727      5.176846      5.176846     10.353691
     -1.716717      3.617013      3.617013      7.234026
     -1.706707      2.596168      2.596168      5.192337
     -1.696697      2.195717      2.195717      4.391434
     -1.686687      2.439359      2.439359      4.878719
     -1.676677      3.304694      3.304694      6.609389
     -1.666667      4.710517      4.710517      9.421034
     -1.656657      6.489256      6.489256     12.978513
     -1.646647      8.373543      8.373543     16.747085
     -1.636637     10.026701     10.026701     20.053403
     -1.626627     11.125923     11.125923     22.251845
