# EIG2DOS: Utility for SIESTA to obtain the electronic density of states
#  E. Artacho, Apr 1999, A. Garcia, Apr 2012
#  Nick R. Papior, Feb 2017
# ------------------------------------------
# Eigenvalues calculated from a non-polarized calculation
# Eigenvalues read from siesta.EIG
# Kpoint weights read from siesta.KP
# Using smearing parameter:   0.0500
# Using 1000 points in the energy range
# Selected bands: 1 to: 2981
# Emin, Emax in file for selected band(s):    -27.0299532    218.3132630
# Nbands, Nspin, Nk   =   2981     1     1
# E_F                 =    -4.2988 eV --> (shifted to ZERO)
# Broadening          =     0.0500 eV
#
#        E            N(up)  (=)   N(down)         Ntot
     -5.000000     44.275664     44.275664     88.551329
     -4.989990     48.710734     48.710734     97.421467
     -4.979980     51.665604     51.665604    103.331209
     -4.969970     52.748017     52.748017    105.496035
     -4.959960     51.868960     51.868960    103.737920
     -4.949950     49.262769     49.262769     98.525537
     -4.939940     45.423085     45.423085     90.846169
     -4.929930     40.997280     40.997280     81.994561
     -4.919920     36.691327     36.691327     73.382655
     -4.909910     33.210434     33.210434     66.420868
     -4.899900     31.217348     31.217348     62.434696
     -4.889890     31.261234     31.261234     62.522468
     -4.879880     33.642209     33.642209     67.284417
     -4.869870     38.233067     38.233067     76.466135
     -4.859860     44.348721     44.348721     88.697443
     -4.849850     50.780706     50.780706    101.561412
     -4.839840     56.059196     56.059196    112.118392
     -4.829830     58.883354     58.883354    117.766708
     -4.819820     58.545652     58.545652    117.091304
     -4.809810     55.151425     55.151425    110.302851
     -4.799800     49.530260     49.530260     99.060520
     -4.789790     42.894959     42.894959     85.789918
     -4.779780     36.423773     36.423773     72.847545
     -4.769770     30.950268     30.950268     61.900536
     -4.759760     26.853115     26.853115     53.706230
     -4.749750     24.120921     24.120921     48.241843
     -4.739740     22.500056     22.500056     45.000113
     -4.729730     21.637591     21.637591     43.275183
     -4.719720     21.176158     21.176158     42.352315
     -4.709710     20.800309     20.800309     41.600618
     -4.699700     20.255049     20.255049     40.510098
     -4.689690     19.359906     19.359906     38.719813
     -4.679680     18.034691     18.034691     36.069381
     -4.669670     16.339116     16.339116     32.678232
     -4.659660     14.511295     14.511295     29.022590
     -4.649650     12.978187     12.978187     25.956375
     -4.639640     12.312642     12.312642     24.625283
     -4.629630     13.126356     13.126356     26.252712
     -4.619620     15.908964     15.908964     31.817927
     -4.609610     20.845264     20.845264     41.690528
     -4.599600     27.663932     27.663932     55.327864
     -4.589590     35.585446     35.585446     71.170892
     -4.579580     43.428038     43.428038     86.856076
     -4.569570     49.883089     49.883089     99.766178
     -4.559560     53.893616     53.893616    107.787232
     -4.549550     55.000016     55.000016    110.000032
     -4.539540     53.504209     53.504209    107.008418
     -4.529530     50.367745     50.367745    100.735490
     -4.519520     46.874194     46.874194     93.748389
     -4.509510     44.190685     44.190685     88.381370
     -4.499499     43.002520     43.002520     86.005039
     -4.489489     43.352063     43.352063     86.704126
     -4.479479     44.717088     44.717088     89.434177
     -4.469469     46.266240     46.266240     92.532481
     -4.459459     47.174121     47.174121     94.348242
     -4.449449     46.880677     46.880677     93.761355
     -4.439439     45.224317     45.224317     90.448634
     -4.429429     42.436078     42.436078     84.872156
     -4.419419     39.027385     39.027385     78.054770
     -4.409409     35.624796     35.624796     71.249592
     -4.399399     32.803943     32.803943     65.607885
     -4.389389     30.961146     30.961146     61.922292
     -4.379379     30.244315     30.244315     60.488630
     -4.369369     30.549543     30.549543     61.099087
     -4.359359     31.576978     31.576978     63.153955
     -4.349349     32.928537     32.928537     65.857074
     -4.339339     34.221838     34.221838     68.443675
     -4.329329     35.191344     35.191344     70.382688
     -4.319319     35.751273     35.751273     71.502546
     -4.309309     36.005280     36.005280     72.010561
     -4.299299     36.202789     36.202789     72.405578
     -4.289289     36.655176     36.655176     73.310352
     -4.279279     37.631614     37.631614     75.263229
     -4.269269     39.254759     39.254759     78.509518
     -4.259259     41.417975     41.417975     82.835950
     -4.249249     43.753168     43.753168     87.506337
     -4.239239     45.682744     45.682744     91.365488
     -4.229229     46.571667     46.571667     93.143334
     -4.219219     45.947853     45.947853     91.895706
     -4.209209     43.703688     43.703688     87.407375
     -4.199199     40.173380     40.173380     80.346759
     -4.189189     36.029481     36.029481     72.058963
     -4.179179     32.037517     32.037517     64.075033
     -4.169169     28.788536     28.788536     57.577072
     -4.159159     26.539666     26.539666     53.079332
     -4.149149     25.226912     25.226912     50.453824
     -4.139139     24.618965     24.618965     49.237930
     -4.129129     24.513601     24.513601     49.027201
     -4.119119     24.868987     24.868987     49.737973
     -4.109109     25.803671     25.803671     51.607342
     -4.099099     27.466369     27.466369     54.932739
     -4.089089     29.843769     29.843769     59.687538
     -4.079079     32.615970     32.615970     65.231941
     -4.069069     35.160021     35.160021     70.320041
     -4.059059     36.733233     36.733233     73.466466
     -4.049049     36.766398     36.766398     73.532797
     -4.039039     35.122122     35.122122     70.244243
     -4.029029     32.180157     32.180157     64.360313
     -4.019019     28.704132     28.704132     57.408264
     -4.009009     25.565371     25.565371     51.130742
     -3.998999     23.469973     23.469973     46.939945
     -3.988989     22.812053     22.812053     45.624106
     -3.978979     23.683330     23.683330     47.366659
     -3.968969     25.976761     25.976761     51.953523
     -3.958959     29.490444     29.490444     58.980888
     -3.948949     33.976473     33.976473     67.952946
     -3.938939     39.145405     39.145405     78.290811
     -3.928929     44.674326     44.674326     89.348652
     -3.918919     50.250264     50.250264    100.500528
     -3.908909     55.632029     55.632029    111.264059
     -3.898899     60.678155     60.678155    121.356311
     -3.888889     65.298615     65.298615    130.597231
     -3.878879     69.339018     69.339018    138.678036
     -3.868869     72.462968     72.462968    144.925935
     -3.858859     74.120981     74.120981    148.241962
     -3.848849     73.662328     73.662328    147.324656
     -3.838839     70.571482     70.571482    141.142964
     -3.828829     64.733309     64.733309    129.466618
     -3.818819     56.597753     56.597753    113.195506
     -3.808809     47.150563     47.150563     94.301127
     -3.798799     37.685319     37.685319     75.370639
     -3.788789     29.463470     29.463470     58.926941
     -3.778779     23.392836     23.392836     46.785672
     -3.768769     19.833548     19.833548     39.667097
     -3.758759     18.576765     18.576765     37.153530
     -3.748749     18.976062     18.976062     37.952124
     -3.738739     20.172585     20.172585     40.345170
     -3.728729     21.346154     21.346154     42.692307
     -3.718719     21.933028     21.933028     43.866057
     -3.708709     21.764536     21.764536     43.529072
     -3.698699     21.095525     21.095525     42.191051
     -3.688689     20.510997     20.510997     41.021994
     -3.678679     20.726717     20.726717     41.453434
     -3.668669     22.333156     22.333156     44.666311
     -3.658659     25.561136     25.561136     51.122271
     -3.648649     30.155213     30.155213     60.310426
     -3.638639     35.412573     35.412573     70.825145
     -3.628629     40.382729     40.382729     80.765458
     -3.618619     44.152398     44.152398     88.304796
     -3.608609     46.100741     46.100741     92.201482
     -3.598599     46.029727     46.029727     92.059455
     -3.588589     44.142046     44.142046     88.284092
     -3.578579     40.910311     40.910311     81.820622
     -3.568569     36.912390     36.912390     73.824781
     -3.558559     32.690261     32.690261     65.380522
     -3.548549     28.653243     28.653243     57.306485
     -3.538539     25.025608     25.025608     50.051216
     -3.528529     21.840644     21.840644     43.681288
     -3.518519     18.987649     18.987649     37.975298
     -3.508509     16.305179     16.305179     32.610357
     -3.498498     13.687987     13.687987     27.375974
     -3.488488     11.160871     11.160871     22.321742
     -3.478478      8.886571      8.886571     17.773142
     -3.468468      7.108672      7.108672     14.217343
     -3.458458      6.059622      6.059622     12.119244
     -3.448448      5.871716      5.871716     11.743433
     -3.438438      6.518715      6.518715     13.037430
     -3.428428      7.802542      7.802542     15.605084
     -3.418418      9.391452      9.391452     18.782904
     -3.408408     10.908046     10.908046     21.816092
     -3.398398     12.049368     12.049368     24.098736
     -3.388388     12.700279     12.700279     25.400559
     -3.378378     12.991645     12.991645     25.983289
     -3.368368     13.271116     13.271116     26.542233
     -3.358358     13.992704     13.992704     27.985408
     -3.348348     15.568580     15.568580     31.137160
     -3.338338     18.237774     18.237774     36.475548
     -3.328328     21.986462     21.986462     43.972924
     -3.318318     26.523630     26.523630     53.047260
     -3.308308     31.301441     31.301441     62.602882
     -3.298298     35.579952     35.579952     71.159905
     -3.288288     38.550378     38.550378     77.100755
     -3.278278     39.519737     39.519737     79.039473
     -3.268268     38.116721     38.116721     76.233443
     -3.258258     34.435865     34.435865     68.871730
     -3.248248     29.039337     29.039337     58.078674
     -3.238238     22.796554     22.796554     45.593109
     -3.228228     16.625521     16.625521     33.251043
     -3.218218     11.248562     11.248562     22.497124
     -3.208208      7.057456      7.057456     14.114912
     -3.198198      4.117040      4.117040      8.234080
     -3.188188      2.269886      2.269886      4.539771
     -3.178178      1.275048      1.275048      2.550096
     -3.168168      0.925196      0.925196      1.850391
     -3.158158      1.116618      1.116618      2.233236
     -3.148148      1.871117      1.871117      3.742234
     -3.138138      3.317228      3.317228      6.634457
     -3.128128      5.636280      5.636280     11.272561
     -3.118118      8.978704      8.978704     17.957408
     -3.108108     13.365730     13.365730     26.731461
     -3.098098     18.607999     18.607999     37.215998
     -3.088088     24.282321     24.282321     48.564641
     -3.078078     29.795731     29.795731     59.591462
     -3.068068     34.528454     34.528454     69.056908
     -3.058058     38.000996     38.000996     76.001992
     -3.048048     39.986780     39.986780     79.973561
     -3.038038     40.515094     40.515094     81.030187
     -3.028028     39.773520     39.773520     79.547040
     -3.018018     37.983519     37.983519     75.967038
     -3.008008     35.338499     35.338499     70.676997
     -2.997998     32.044205     32.044205     64.088409
     -2.987988     28.420693     28.420693     56.841386
     -2.977978     24.973851     24.973851     49.947701
     -2.967968     22.359924     22.359924     44.719847
     -2.957958     21.234774     21.234774     42.469548
     -2.947948     22.050064     22.050064     44.100127
     -2.937938     24.886858     24.886858     49.773715
     -2.927928     29.394772     29.394772     58.789544
     -2.917918     34.855666     34.855666     69.711332
     -2.907908     40.345842     40.345842     80.691684
     -2.897898     44.946349     44.946349     89.892698
     -2.887888     47.946314     47.946314     95.892629
     -2.877878     48.990765     48.990765     97.981530
     -2.867868     48.136664     48.136664     96.273328
     -2.857858     45.800073     45.800073     91.600145
     -2.847848     42.605779     42.605779     85.211559
     -2.837838     39.184299     39.184299     78.368599
     -2.827828     35.986135     35.986135     71.972269
     -2.817818     33.182810     33.182810     66.365620
     -2.807808     30.691157     30.691157     61.382315
     -2.797798     28.302599     28.302599     56.605197
     -2.787788     25.849383     25.849383     51.698765
     -2.777778     23.322753     23.322753     46.645506
     -2.767768     20.885711     20.885711     41.771421
     -2.757758     18.782361     18.782361     37.564723
     -2.747748     17.204255     17.204255     34.408510
     -2.737738     16.197498     16.197498     32.394996
     -2.727728     15.667399     15.667399     31.334798
     -2.717718     15.474678     15.474678     30.949356
     -2.707708     15.556967     15.556967     31.113935
     -2.697698     15.990509     15.990509     31.981019
     -2.687688     16.944010     16.944010     33.888020
     -2.677678     18.547912     18.547912     37.095823
     -2.667668     20.762089     20.762089     41.524178
     -2.657658     23.332405     23.332405     46.664810
     -2.647648     25.873507     25.873507     51.747013
     -2.637638     28.034196     28.034196     56.068392
     -2.627628     29.646583     29.646583     59.293166
     -2.617618     30.770158     30.770158     61.540315
     -2.607608     31.611516     31.611516     63.223032
     -2.597598     32.380251     32.380251     64.760502
     -2.587588     33.173796     33.173796     66.347593
     -2.577578     33.948280     33.948280     67.896560
     -2.567568     34.562830     34.562830     69.125661
     -2.557558     34.840682     34.840682     69.681364
     -2.547548     34.604263     34.604263     69.208527
     -2.537538     33.691113     33.691113     67.382225
     -2.527528     31.989349     31.989349     63.978698
     -2.517518     29.512381     29.512381     59.024761
     -2.507508     26.480670     26.480670     52.961341
     -2.497497     23.344241     23.344241     46.688483
     -2.487487     20.698519     20.698519     41.397038
     -2.477477     19.107810     19.107810     38.215619
     -2.467467     18.911126     18.911126     37.822253
     -2.457457     20.103560     20.103560     40.207119
     -2.447447     22.352898     22.352898     44.705796
     -2.437437     25.146438     25.146438     50.292877
     -2.427427     28.000727     28.000727     56.001453
     -2.417417     30.636641     30.636641     61.273283
     -2.407407     33.037637     33.037637     66.075273
     -2.397397     35.364047     35.364047     70.728094
     -2.387387     37.766470     37.766470     75.532939
     -2.377377     40.193225     40.193225     80.386450
     -2.367367     42.294837     42.294837     84.589674
     -2.357357     43.486432     43.486432     86.972865
     -2.347347     43.154625     43.154625     86.309251
     -2.337337     40.923073     40.923073     81.846146
     -2.327327     36.857031     36.857031     73.714062
     -2.317317     31.511942     31.511942     63.023884
     -2.307307     25.803399     25.803399     51.606799
     -2.297297     20.756530     20.756530     41.513060
     -2.287287     17.237994     17.237994     34.475987
     -2.277277     15.764238     15.764238     31.528475
     -2.267267     16.431533     16.431533     32.863066
     -2.257257     18.960733     18.960733     37.921465
     -2.247247     22.817413     22.817413     45.634825
     -2.237237     27.358919     27.358919     54.717838
     -2.227227     31.964351     31.964351     63.928702
     -2.217217     36.115664     36.115664     72.231328
     -2.207207     39.419008     39.419008     78.838017
     -2.197197     41.583597     41.583597     83.167194
     -2.187187     42.398033     42.398033     84.796066
     -2.177177     41.742752     41.742752     83.485504
     -2.167167     39.645363     39.645363     79.290726
     -2.157157     36.340895     36.340895     72.681790
     -2.147147     32.275459     32.275459     64.550919
     -2.137137     28.014363     28.014363     56.028726
     -2.127127     24.075538     24.075538     48.151077
     -2.117117     20.765621     20.765621     41.531241
     -2.107107     18.105790     18.105790     36.211579
     -2.097097     15.886642     15.886642     31.773285
     -2.087087     13.817375     13.817375     27.634751
     -2.077077     11.684575     11.684575     23.369150
     -2.067067      9.440846      9.440846     18.881691
     -2.057057      7.194026      7.194026     14.388052
     -2.047047      5.125665      5.125665     10.251330
     -2.037037      3.396514      3.396514      6.793028
     -2.027027      2.086952      2.086952      4.173904
     -2.017017      1.188073      1.188073      2.376146
     -2.007007      0.629934      0.629934      1.259868
     -1.996997      0.322175      0.322175      0.644351
     -1.986987      0.187948      0.187948      0.375897
     -1.976977      0.184355      0.184355      0.368709
     -1.966967      0.311600      0.311600      0.623200
     -1.956957      0.614914      0.614914      1.229829
     -1.946947      1.179770      1.179770      2.359540
     -1.936937      2.116648      2.116648      4.233296
     -1.926927      3.531213      3.531213      7.062427
     -1.916917      5.481524      5.481524     10.963047
     -1.906907      7.933820      7.933820     15.867640
     -1.896897     10.736034     10.736034     21.472067
     -1.886887     13.626323     13.626323     27.252646
     -1.876877     16.281042     16.281042     32.562084
     -1.866867     18.389254     18.389254     36.778509
     -1.856857     19.729705     19.729705     39.459409
     -1.846847     20.226317     20.226317     40.452633
     -1.836837     19.966054     19.966054     39.932109
     -1.826827     19.171791     19.171791     38.343581
     -1.816817     18.131962     18.131962     36.263924
     -1.806807     17.102695     17.102695     34.205389
     -1.796797     16.215876     16.215876     32.431752
     -1.786787     15.435664     15.435664     30.871328
     -1.776777     14.591216     14.591216     29.182432
     -1.766767     13.475603     13.475603     26.951206
     -1.756757     11.962383     11.962383     23.924766
     -1.746747     10.080488     10.080488     20.160976
     -1.736737      8.014453      8.014453     16.028906
     -1.726727      6.042072      6.042072     12.084144
     -1.716717      4.453449      4.453449      8.906898
     -1.706707      3.494351      3.494351      6.988702
     -1.696697      3.348121      3.348121      6.696243
     -1.686687      4.137627      4.137627      8.275254
     -1.676677      5.914859      5.914859     11.829718
     -1.666667      8.619539      8.619539     17.239077
     -1.656657     12.020224     12.020224     24.040448
     -1.646647     15.680894     15.680894     31.361788
     -1.636637     19.000720     19.000720     38.001441
     -1.626627     21.345295     21.345295     42.690589
