# EIG2DOS: Utility for SIESTA to obtain the electronic density of states
#  E. Artacho, Apr 1999, A. Garcia, Apr 2012
#  Nick R. Papior, Feb 2017
# ------------------------------------------
# Eigenvalues calculated from a non-polarized calculation
# Eigenvalues read from siesta.EIG
# Kpoint weights read from siesta.KP
# Using smearing parameter:   0.0500
# Using 1000 points in the energy range
# Selected bands: 1 to: 2981
# Emin, Emax in file for selected band(s):    -27.1353834    218.3491990
# Nbands, Nspin, Nk   =   2981     1     1
# E_F                 =    -4.2555 eV --> (shifted to ZERO)
# Broadening          =     0.0500 eV
#
#        E            N(up)  (=)   N(down)         Ntot
     -5.000000     33.525493     33.525493     67.050986
     -4.989990     37.392960     37.392960     74.785920
     -4.979980     40.787354     40.787354     81.574708
     -4.969970     43.178353     43.178353     86.356706
     -4.959960     44.158044     44.158044     88.316088
     -4.949950     43.562656     43.562656     87.125313
     -4.939940     41.532888     41.532888     83.065777
     -4.929930     38.498447     38.498447     76.996895
     -4.919920     35.106335     35.106335     70.212669
     -4.909910     32.123610     32.123610     64.247219
     -4.899900     30.328952     30.328952     60.657903
     -4.889890     30.382892     30.382892     60.765785
     -4.879880     32.664852     32.664852     65.329703
     -4.869870     37.100522     37.100522     74.201044
     -4.859860     43.054273     43.054273     86.108547
     -4.849850     49.380542     49.380542     98.761084
     -4.839840     54.679828     54.679828    109.359656
     -4.829830     57.701284     57.701284    115.402569
     -4.819820     57.736839     57.736839    115.473677
     -4.809810     54.831754     54.831754    109.663507
     -4.799800     49.717832     49.717832     99.435665
     -4.789790     43.512643     43.512643     87.025286
     -4.779780     37.335908     37.335908     74.671816
     -4.769770     32.009578     32.009578     64.019155
     -4.759760     27.934370     27.934370     55.868740
     -4.749750     25.132649     25.132649     50.265299
     -4.739740     23.380771     23.380771     46.761542
     -4.729730     22.348158     22.348158     44.696317
     -4.719720     21.695241     21.695241     43.390481
     -4.709710     21.123049     21.123049     42.246098
     -4.699700     20.392624     20.392624     40.785248
     -4.689690     19.339530     19.339530     38.679060
     -4.679680     17.901582     17.901582     35.803164
     -4.669670     16.160593     16.160593     32.321186
     -4.659660     14.379146     14.379146     28.758291
     -4.649650     13.002491     13.002491     26.004982
     -4.639640     12.601435     12.601435     25.202870
     -4.629630     13.751908     13.751908     27.503816
     -4.619620     16.871360     16.871360     33.742720
     -4.609610     22.053595     22.053595     44.107189
     -4.599600     28.958143     28.958143     57.916287
     -4.589590     36.811153     36.811153     73.622305
     -4.579580     44.551103     44.551103     89.102206
     -4.569570     51.100291     51.100291    102.200582
     -4.559560     55.678787     55.678787    111.357574
     -4.549550     58.037853     58.037853    116.075706
     -4.539540     58.507362     58.507362    117.014724
     -4.529530     57.828302     57.828302    115.656603
     -4.519520     56.839980     56.839980    113.679960
     -4.509510     56.157799     56.157799    112.315598
     -4.499499     55.974984     55.974984    111.949967
     -4.489489     56.054884     56.054884    112.109767
     -4.479479     55.889684     55.889684    111.779367
     -4.469469     54.935211     54.935211    109.870422
     -4.459459     52.817881     52.817881    105.635762
     -4.449449     49.444234     49.444234     98.888468
     -4.439439     44.999351     44.999351     89.998703
     -4.429429     39.867910     39.867910     79.735819
     -4.419419     34.531851     34.531851     69.063703
     -4.409409     29.487990     29.487990     58.975980
     -4.399399     25.198009     25.198009     50.396019
     -4.389389     22.053282     22.053282     44.106565
     -4.379379     20.328696     20.328696     40.657391
     -4.369369     20.119728     20.119728     40.239457
     -4.359359     21.289718     21.289718     42.579437
     -4.349349     23.471404     23.471404     46.942807
     -4.339339     26.150103     26.150103     52.300205
     -4.329329     28.812807     28.812807     57.625614
     -4.319319     31.106657     31.106657     62.213313
     -4.309309     32.939215     32.939215     65.878430
     -4.299299     34.477513     34.477513     68.955026
     -4.289289     36.045674     36.045674     72.091348
     -4.279279     37.958247     37.958247     75.916495
     -4.269269     40.346227     40.346227     80.692454
     -4.259259     43.037022     43.037022     86.074043
     -4.249249     45.541773     45.541773     91.083545
     -4.239239     47.177730     47.177730     94.355460
     -4.229229     47.303765     47.303765     94.607529
     -4.219219     45.585738     45.585738     91.171476
     -4.209209     42.171596     42.171596     84.343191
     -4.199199     37.680238     37.680238     75.360477
     -4.189189     32.994739     32.994739     65.989479
     -4.179179     28.952770     28.952770     57.905539
     -4.169169     26.080635     26.080635     52.161269
     -4.159159     24.488089     24.488089     48.976179
     -4.149149     23.950886     23.950886     47.901772
     -4.139139     24.114404     24.114404     48.228807
     -4.129129     24.704374     24.704374     49.408749
     -4.119119     25.642954     25.642954     51.285908
     -4.109109     27.022172     27.022172     54.044344
     -4.099099     28.955090     28.955090     57.910181
     -4.089089     31.384548     31.384548     62.769096
     -4.079079     33.958638     33.958638     67.917276
     -4.069069     36.061209     36.061209     72.122417
     -4.059059     37.011669     37.011669     74.023337
     -4.049049     36.351963     36.351963     72.703926
     -4.039039     34.077079     34.077079     68.154157
     -4.029029     30.684749     30.684749     61.369497
     -4.019019     27.015497     27.015497     54.030993
     -4.009009     23.967093     23.967093     47.934185
     -3.998999     22.226084     22.226084     44.452168
     -3.988989     22.130253     22.130253     44.260506
     -3.978979     23.687040     23.687040     47.374080
     -3.968969     26.687817     26.687817     53.375635
     -3.958959     30.828791     30.828791     61.657583
     -3.948949     35.782776     35.782776     71.565552
     -3.938939     41.224369     41.224369     82.448738
     -3.928929     46.845261     46.845261     93.690523
     -3.918919     52.384631     52.384631    104.769263
     -3.908909     57.660843     57.660843    115.321687
     -3.898899     62.565282     62.565282    125.130564
     -3.888889     66.993797     66.993797    133.987594
     -3.878879     70.737817     70.737817    141.475634
     -3.868869     73.401001     73.401001    146.802002
     -3.858859     74.413883     74.413883    148.827766
     -3.848849     73.177670     73.177670    146.355339
     -3.838839     69.298712     69.298712    138.597424
     -3.828829     62.815773     62.815773    125.631546
     -3.818819     54.309011     54.309011    108.618023
     -3.808809     44.824662     44.824662     89.649325
     -3.798799     35.630883     35.630883     71.261767
     -3.788789     27.894266     27.894266     55.788533
     -3.778779     22.394599     22.394599     44.789198
     -3.768769     19.368909     19.368909     38.737818
     -3.758759     18.517414     18.517414     37.034828
     -3.748749     19.147657     19.147657     38.295315
     -3.738739     20.400572     20.400572     40.801145
     -3.728729     21.494726     21.494726     42.989453
     -3.718719     21.932029     21.932029     43.864058
     -3.708709     21.620346     21.620346     43.240691
     -3.698699     20.883571     20.883571     41.767143
     -3.688689     20.350592     20.350592     40.701183
     -3.678679     20.743394     20.743394     41.486788
     -3.668669     22.618083     22.618083     45.236167
     -3.658659     26.139529     26.139529     52.279058
     -3.648649     30.974074     30.974074     61.948148
     -3.638639     36.352053     36.352053     72.704107
     -3.628629     41.286804     41.286804     82.573608
     -3.618619     44.867447     44.867447     89.734893
     -3.608609     46.508996     46.508996     93.017992
     -3.598599     46.069051     46.069051     92.138103
     -3.588589     43.810672     43.810672     87.621345
     -3.578579     40.260112     40.260112     80.520225
     -3.568569     36.034778     36.034778     72.069555
     -3.558559     31.697133     31.697133     63.394266
     -3.548549     27.655107     27.655107     55.310215
     -3.538539     24.111009     24.111009     48.222018
     -3.528529     21.062790     21.062790     42.125580
     -3.518519     18.362623     18.362623     36.725246
     -3.508509     15.821207     15.821207     31.642415
     -3.498498     13.320278     13.320278     26.640556
     -3.488488     10.884875     10.884875     21.769750
     -3.478478      8.684980      8.684980     17.369961
     -3.468468      6.971728      6.971728     13.943457
     -3.458458      5.981440      5.981440     11.962881
     -3.448448      5.846027      5.846027     11.692053
     -3.438438      6.536370      6.536370     13.072740
     -3.428428      7.851740      7.851740     15.703479
     -3.418418      9.460624      9.460624     18.921247
     -3.408408     10.990560     10.990560     21.981119
     -3.398398     12.148311     12.148311     24.296621
     -3.388388     12.830931     12.830931     25.661862
     -3.378378     13.179640     13.179640     26.359280
     -3.368368     13.546073     13.546073     27.092146
     -3.358358     14.379424     14.379424     28.758847
     -3.348348     16.079071     16.079071     32.158142
     -3.338338     18.866128     18.866128     37.732255
     -3.328328     22.705974     22.705974     45.411948
     -3.318318     27.284247     27.284247     54.568494
     -3.308308     32.027786     32.027786     64.055573
     -3.298298     36.174513     36.174513     72.349026
     -3.288288     38.908147     38.908147     77.816294
     -3.278278     39.555791     39.555791     79.111581
     -3.268268     37.798633     37.798633     75.597267
     -3.258258     33.806199     33.806199     67.612398
     -3.248248     28.216792     28.216792     56.433585
     -3.238238     21.957208     21.957208     43.914416
     -3.228228     15.978902     15.978902     31.957804
     -3.218218     11.026420     11.026420     22.052841
     -3.208208      7.522331      7.522331     15.044662
     -3.198198      5.579276      5.579276     11.158553
     -3.188188      5.087613      5.087613     10.175225
     -3.178178      5.812398      5.812398     11.624796
     -3.168168      7.462841      7.462841     14.925682
     -3.158158      9.738357      9.738357     19.476713
     -3.148148     12.374565     12.374565     24.749129
     -3.138138     15.198506     15.198506     30.397013
     -3.128128     18.171287     18.171287     36.342574
     -3.118118     21.379167     21.379167     42.758333
     -3.108108     24.951989     24.951989     49.903977
     -3.098098     28.933757     28.933757     57.867514
     -3.088088     33.171094     33.171094     66.342189
     -3.078078     37.287033     37.287033     74.574065
     -3.068068     40.763159     40.763159     81.526319
     -3.058058     43.091024     43.091024     86.182047
     -3.048048     43.916829     43.916829     87.833658
     -3.038038     43.115984     43.115984     86.231967
     -3.028028     40.783515     40.783515     81.567030
     -3.018018     37.174933     37.174933     74.349866
     -3.008008     32.647420     32.647420     65.294840
     -2.997998     27.629564     27.629564     55.259127
     -2.987988     22.612901     22.612901     45.225802
     -2.977978     18.138438     18.138438     36.276876
     -2.967968     14.756252     14.756252     29.512504
     -2.957958     12.955174     12.955174     25.910349
     -2.947948     13.075349     13.075349     26.150698
     -2.937938     15.222381     15.222381     30.444763
     -2.927928     19.203455     19.203455     38.406909
     -2.917918     24.509154     24.509154     49.018307
     -2.907908     30.365702     30.365702     60.731404
     -2.897898     35.869654     35.869654     71.739309
     -2.887888     40.185992     40.185992     80.371984
     -2.877878     42.752981     42.752981     85.505962
     -2.867868     43.417063     43.417063     86.834126
     -2.857858     42.437532     42.437532     84.875063
     -2.847848     40.352448     40.352448     80.704896
     -2.837838     37.759899     37.759899     75.519798
     -2.827828     35.108960     35.108960     70.217920
     -2.817818     32.589284     32.589284     65.178568
     -2.807808     30.158350     30.158350     60.316701
     -2.797798     27.676365     27.676365     55.352729
     -2.787788     25.066924     25.066924     50.133847
     -2.777778     22.414301     22.414301     44.828603
     -2.767768     19.949058     19.949058     39.898117
     -2.757758     17.939724     17.939724     35.879447
     -2.747748     16.562189     16.562189     33.124379
     -2.737738     15.828910     15.828910     31.657820
     -2.727728     15.620164     15.620164     31.240328
     -2.717718     15.792906     15.792906     31.585813
     -2.707708     16.290724     16.290724     32.581449
     -2.697698     17.176028     17.176028     34.352056
     -2.687688     18.557376     18.557376     37.114751
     -2.677678     20.458701     20.458701     40.917402
     -2.667668     22.723166     22.723166     45.446332
     -2.657658     25.027932     25.027932     50.055865
     -2.647648     27.014314     27.014314     54.028627
     -2.637638     28.457943     28.457943     56.915887
     -2.627628     29.372304     29.372304     58.744608
     -2.617618     29.980493     29.980493     59.960987
     -2.607608     30.576086     30.576086     61.152173
     -2.597598     31.362347     31.362347     62.724695
     -2.587588     32.361576     32.361576     64.723151
     -2.577578     33.426672     33.426672     66.853345
     -2.567568     34.316724     34.316724     68.633449
     -2.557558     34.772758     34.772758     69.545515
     -2.547548     34.561090     34.561090     69.122179
     -2.537538     33.501774     33.501774     67.003548
     -2.527528     31.517643     31.517643     63.035286
     -2.517518     28.709089     28.709089     57.418178
     -2.507508     25.412114     25.412114     50.824228
     -2.497497     22.179608     22.179608     44.359216
     -2.487487     19.658684     19.658684     39.317369
     -2.477477     18.398033     18.398033     36.796066
     -2.467467     18.666098     18.666098     37.332197
     -2.457457     20.363883     20.363883     40.727766
     -2.447447     23.075310     23.075310     46.150621
     -2.437437     26.235821     26.235821     52.471642
     -2.427427     29.345612     29.345612     58.691224
     -2.417417     32.131949     32.131949     64.263899
     -2.407407     34.586707     34.586707     69.173414
     -2.397397     36.863397     36.863397     73.726794
     -2.387387     39.086720     39.086720     78.173440
     -2.377377     41.173536     41.173536     82.347072
     -2.367367     42.763033     42.763033     85.526065
     -2.357357     43.304005     43.304005     86.608010
     -2.347347     42.270764     42.270764     84.541529
     -2.337337     39.412965     39.412965     78.825929
     -2.327327     34.923239     34.923239     69.846477
     -2.317317     29.443375     29.443375     58.886749
     -2.307307     23.906138     23.906138     47.812276
     -2.297297     19.283263     19.283263     38.566525
     -2.287287     16.341185     16.341185     32.682369
     -2.277277     15.484855     15.484855     30.969710
     -2.267267     16.718888     16.718888     33.437776
     -2.257257     19.708168     19.708168     39.416335
     -2.247247     23.896307     23.896307     47.792614
     -2.237237     28.638498     28.638498     57.276997
     -2.227227     33.314089     33.314089     66.628179
     -2.217217     37.397264     37.397264     74.794529
     -2.207207     40.481710     40.481710     80.963420
     -2.197197     42.275690     42.275690     84.551380
     -2.187187     42.597893     42.597893     85.195787
     -2.177177     41.398882     41.398882     82.797765
     -2.167167     38.805109     38.805109     77.610218
     -2.157157     35.148742     35.148742     70.297484
     -2.147147     30.934941     30.934941     61.869883
     -2.137137     26.726137     26.726137     53.452273
     -2.127127     22.977639     22.977639     45.955277
     -2.117117     19.901979     19.901979     39.803957
     -2.107107     17.435040     17.435040     34.870080
     -2.097097     15.322930     15.322930     30.645860
     -2.087087     13.280112     13.280112     26.560224
     -2.077077     11.133045     11.133045     22.266091
     -2.067067      8.881411      8.881411     17.762823
     -2.057057      6.663792      6.663792     13.327584
     -2.047047      4.666953      4.666953      9.333907
     -2.037037      3.036751      3.036751      6.073502
     -2.027027      1.831216      1.831216      3.662432
     -2.017017      1.023016      1.023016      2.046032
     -2.007007      0.533045      0.533045      1.066091
     -1.996997      0.270510      0.270510      0.541019
     -1.986987      0.163322      0.163322      0.326643
     -1.976977      0.174939      0.174939      0.349878
     -1.966967      0.311358      0.311358      0.622716
     -1.956957      0.622409      0.622409      1.244817
     -1.946947      1.197274      1.197274      2.394548
     -1.936937      2.149825      2.149825      4.299650
     -1.926927      3.589174      3.589174      7.178349
     -1.916917      5.576934      5.576934     11.153869
     -1.906907      8.082931      8.082931     16.165863
     -1.896897     10.959314     10.959314     21.918629
     -1.886887     13.951802     13.951802     27.903603
     -1.876877     16.753897     16.753897     33.507794
     -1.866867     19.090893     19.090893     38.181786
     -1.856857     20.805315     20.805315     41.610629
     -1.846847     21.911036     21.911036     43.822072
     -1.836837     22.590029     22.590029     45.180057
     -1.826827     23.121409     23.121409     46.242818
     -1.816817     23.756490     23.756490     47.512979
     -1.806807     24.582766     24.582766     49.165531
     -1.796797     25.440704     25.440704     50.881408
     -1.786787     25.948958     25.948958     51.897917
     -1.776777     25.646668     25.646668     51.293336
     -1.766767     24.195700     24.195700     48.391401
     -1.756757     21.544022     21.544022     43.088045
     -1.746747     17.967268     17.967268     35.934537
     -1.736737     13.972634     13.972634     27.945269
     -1.726727     10.123241     10.123241     20.246483
     -1.716717      6.874310      6.874310     13.748620
     -1.706707      4.489433      4.489433      8.978866
     -1.696697      3.049393      3.049393      6.098786
     -1.686687      2.516435      2.516435      5.032871
     -1.676677      2.799508      2.799508      5.599016
     -1.666667      3.781993      3.781993      7.563986
     -1.656657      5.306803      5.306803     10.613605
     -1.646647      7.144695      7.144695     14.289389
     -1.636637      8.985198      8.985198     17.970396
     -1.626627     10.479078     10.479078     20.958157
