# EIG2DOS: Utility for SIESTA to obtain the electronic density of states
#  E. Artacho, Apr 1999, A. Garcia, Apr 2012
#  Nick R. Papior, Feb 2017
# ------------------------------------------
# Eigenvalues calculated from a non-polarized calculation
# Eigenvalues read from siesta.EIG
# Kpoint weights read from siesta.KP
# Using smearing parameter:   0.0500
# Using 1000 points in the energy range
# Selected bands: 1 to: 2981
# Emin, Emax in file for selected band(s):    -27.2646697    218.3788150
# Nbands, Nspin, Nk   =   2981     1     1
# E_F                 =    -4.2259 eV --> (shifted to ZERO)
# Broadening          =     0.0500 eV
#
#        E            N(up)  (=)   N(down)         Ntot
     -5.000000     31.958229     31.958229     63.916458
     -4.989990     36.561675     36.561675     73.123350
     -4.979980     40.853660     40.853660     81.707321
     -4.969970     44.140451     44.140451     88.280902
     -4.959960     45.826944     45.826944     91.653887
     -4.949950     45.611481     45.611481     91.222962
     -4.939940     43.593242     43.593242     87.186484
     -4.929930     40.261197     40.261197     80.522394
     -4.919920     36.388159     36.388159     72.776319
     -4.909910     32.880379     32.880379     65.760757
     -4.899900     30.620631     30.620631     61.241261
     -4.889890     30.312174     30.312174     60.624347
     -4.879880     32.318759     32.318759     64.637519
     -4.869870     36.520414     36.520414     73.040829
     -4.859860     42.245761     42.245761     84.491521
     -4.849850     48.354470     48.354470     96.708940
     -4.839840     53.497641     53.497641    106.995282
     -4.829830     56.494224     56.494224    112.988447
     -4.819820     56.683527     56.683527    113.367053
     -4.809810     54.104470     54.104470    108.208940
     -4.799800     49.426861     49.426861     98.853722
     -4.789790     43.677442     43.677442     87.354883
     -4.779780     37.893755     37.893755     75.787510
     -4.769770     32.851776     32.851776     65.703551
     -4.759760     28.951514     28.951514     57.903028
     -4.749750     26.256153     26.256153     52.512307
     -4.739740     24.618030     24.618030     49.236061
     -4.729730     23.812046     23.812046     47.624092
     -4.719720     23.622084     23.622084     47.244168
     -4.709710     23.863706     23.863706     47.727412
     -4.699700     24.359479     24.359479     48.718957
     -4.689690     24.904722     24.904722     49.809445
     -4.679680     25.266211     25.266211     50.532423
     -4.669670     25.239434     25.239434     50.478867
     -4.659660     24.754480     24.754480     49.508959
     -4.649650     23.982387     23.982387     47.964775
     -4.639640     23.374938     23.374938     46.749875
     -4.629630     23.586049     23.586049     47.172098
     -4.619620     25.270127     25.270127     50.540255
     -4.609610     28.814010     28.814010     57.628020
     -4.599600     34.107267     34.107267     68.214534
     -4.589590     40.463781     40.463781     80.927563
     -4.579580     46.761432     46.761432     93.522864
     -4.569570     51.776913     51.776913    103.553827
     -4.559560     54.597444     54.597444    109.194889
     -4.549550     54.940899     54.940899    109.881797
     -4.539540     53.243989     53.243989    106.487978
     -4.529530     50.476660     50.476660    100.953321
     -4.519520     47.761723     47.761723     95.523447
     -4.509510     45.961390     45.961390     91.922779
     -4.499499     45.398046     45.398046     90.796093
     -4.489489     45.807358     45.807358     91.614715
     -4.479479     46.515682     46.515682     93.031363
     -4.469469     46.742496     46.742496     93.484992
     -4.459459     45.891671     45.891671     91.783343
     -4.449449     43.723032     43.723032     87.446064
     -4.439439     40.366542     40.366542     80.733083
     -4.429429     36.216168     36.216168     72.432336
     -4.419419     31.782248     31.782248     63.564495
     -4.409409     27.573772     27.573772     55.147543
     -4.399399     24.037735     24.037735     48.075470
     -4.389389     21.534682     21.534682     43.069364
     -4.379379     20.311045     20.311045     40.622090
     -4.369369     20.450079     20.450079     40.900158
     -4.359359     21.823645     21.823645     43.647290
     -4.349349     24.091163     24.091163     48.182326
     -4.339339     26.777386     26.777386     53.554771
     -4.329329     29.415745     29.415745     58.831490
     -4.319319     31.700698     31.700698     63.401396
     -4.309309     33.580305     33.580305     67.160610
     -4.299299     35.245134     35.245134     70.490268
     -4.289289     37.013999     37.013999     74.027999
     -4.279279     39.157373     39.157373     78.314746
     -4.269269     41.722750     41.722750     83.445501
     -4.259259     44.431386     44.431386     88.862772
     -4.249249     46.701702     46.701702     93.403403
     -4.239239     47.816217     47.816217     95.632434
     -4.229229     47.187878     47.187878     94.375755
     -4.219219     44.621346     44.621346     89.242691
     -4.209209     40.444913     40.444913     80.889825
     -4.199199     35.436080     35.436080     70.872160
     -4.189189     30.562917     30.562917     61.125835
     -4.179179     26.658077     26.658077     53.316154
     -4.169169     24.174161     24.174161     48.348322
     -4.159159     23.120063     23.120063     46.240125
     -4.149149     23.181730     23.181730     46.363460
     -4.139139     23.945031     23.945031     47.890063
     -4.129129     25.103909     25.103909     50.207818
     -4.119119     26.559141     26.559141     53.118282
     -4.109109     28.371461     28.371461     56.742922
     -4.099099     30.601537     30.601537     61.203074
     -4.089089     33.125390     33.125390     66.250780
     -4.079079     35.534969     35.534969     71.069938
     -4.069069     37.201756     37.201756     74.403512
     -4.059059     37.499463     37.499463     74.998926
     -4.049049     36.087946     36.087946     72.175892
     -4.039039     33.112497     33.112497     66.224994
     -4.029029     29.208578     29.208578     58.417156
     -4.019019     25.305030     25.305030     50.610059
     -4.009009     22.324606     22.324606     44.649212
     -3.998999     20.923667     20.923667     41.847334
     -3.988989     21.372597     21.372597     42.745194
     -3.978979     23.590254     23.590254     47.180509
     -3.968969     27.269812     27.269812     54.539624
     -3.958959     32.011973     32.011973     64.023946
     -3.948949     37.414069     37.414069     74.828139
     -3.938939     43.113958     43.113958     86.227917
     -3.928929     48.814776     48.814776     97.629552
     -3.918919     54.305635     54.305635    108.611270
     -3.908909     59.464143     59.464143    118.928287
     -3.898899     64.214188     64.214188    128.428375
     -3.888889     68.435024     68.435024    136.870047
     -3.878879     71.860542     71.860542    143.721084
     -3.868869     74.035403     74.035403    148.070806
     -3.858859     74.380983     74.380983    148.761967
     -3.848849     72.371445     72.371445    144.742890
     -3.838839     67.758232     67.758232    135.516463
     -3.828829     60.746065     60.746065    121.492130
     -3.818819     52.035694     52.035694    104.071388
     -3.808809     42.702422     42.702422     85.404844
     -3.798799     33.947261     33.947261     67.894522
     -3.788789     26.806411     26.806411     53.612821
     -3.778779     21.914437     21.914437     43.828874
     -3.768769     19.388781     19.388781     38.777563
     -3.758759     18.856922     18.856922     37.713844
     -3.748749     19.604502     19.604502     39.209004
     -3.738739     20.795788     20.795788     41.591576
     -3.728729     21.708098     21.708098     43.416195
     -3.718719     21.924403     21.924403     43.848806
     -3.708709     21.438677     21.438677     42.877355
     -3.698699     20.645427     20.645427     41.290854
     -3.688689     20.208946     20.208946     40.417892
     -3.678679     20.838828     20.838828     41.677656
     -3.668669     23.031347     23.031347     46.062695
     -3.658659     26.859890     26.859890     53.719780
     -3.648649     31.895558     31.895558     63.791116
     -3.638639     37.300509     37.300509     74.601019
     -3.628629     42.068832     42.068832     84.137664
     -3.618619     45.323450     45.323450     90.646899
     -3.608609     46.551853     46.551853     93.103706
     -3.598599     45.697607     45.697607     91.395215
     -3.588589     43.098436     43.098436     86.196873
     -3.578579     39.327810     39.327810     78.655620
     -3.568569     35.017533     35.017533     70.035066
     -3.558559     30.714748     30.714748     61.429495
     -3.548549     26.790863     26.790863     53.581726
     -3.538539     23.402359     23.402359     46.804717
     -3.528529     20.505234     20.505234     41.010468
     -3.518519     17.924632     17.924632     35.849263
     -3.508509     15.464122     15.464122     30.928244
     -3.498498     13.015282     13.015282     26.030564
     -3.488488     10.621121     10.621121     21.242243
     -3.478478      8.467767      8.467767     16.935534
     -3.468468      6.814173      6.814173     13.628345
     -3.458458      5.894901      5.894901     11.789802
     -3.448448      5.833497      5.833497     11.666993
     -3.438438      6.591022      6.591022     13.182044
     -3.428428      7.961584      7.961584     15.923168
     -3.418418      9.620087      9.620087     19.240174
     -3.408408     11.219600     11.219600     22.439200
     -3.398398     12.518167     12.518167     25.036333
     -3.388388     13.492337     13.492337     26.984673
     -3.378378     14.384782     14.384782     28.769563
     -3.368368     15.651014     15.651014     31.302028
     -3.358358     17.811634     17.811634     35.623268
     -3.348348     21.259006     21.259006     42.518012
     -3.338338     26.086227     26.086227     52.172454
     -3.328328     31.994044     31.994044     63.988088
     -3.318318     38.301263     38.301263     76.602525
     -3.308308     44.056143     44.056143     88.112285
     -3.298298     48.228774     48.228774     96.457547
     -3.288288     49.950115     49.950115     99.900229
     -3.278278     48.743528     48.743528     97.487055
     -3.268268     44.676748     44.676748     89.353496
     -3.258258     38.369162     38.369162     76.738324
     -3.248248     30.835847     30.835847     61.671695
     -3.238238     23.219950     23.219950     46.439900
     -3.228228     16.516134     16.516134     33.032268
     -3.218218     11.384449     11.384449     22.768899
     -3.208208      8.098412      8.098412     16.196824
     -3.198198      6.602819      6.602819     13.205637
     -3.188188      6.620035      6.620035     13.240070
     -3.178178      7.753674      7.753674     15.507349
     -3.168168      9.574803      9.574803     19.149605
     -3.158158     11.702064     11.702064     23.404127
     -3.148148     13.881967     13.881967     27.763934
     -3.138138     16.047786     16.047786     32.095571
     -3.128128     18.315719     18.315719     36.631439
     -3.118118     20.891850     20.891850     41.783700
     -3.108108     23.912283     23.912283     47.824566
     -3.098098     27.290499     27.290499     54.580998
     -3.088088     30.660208     30.660208     61.320417
     -3.078078     33.460505     33.460505     66.921009
     -3.068068     35.132726     35.132726     70.265452
     -3.058058     35.332381     35.332381     70.664762
     -3.048048     34.048143     34.048143     68.096285
     -3.038038     31.572784     31.572784     63.145568
     -3.028028     28.355661     28.355661     56.711323
     -3.018018     24.829325     24.829325     49.658650
     -3.008008     21.305468     21.305468     42.610937
     -2.997998     17.980625     17.980625     35.961250
     -2.987988     15.020518     15.020518     30.041036
     -2.977978     12.650637     12.650637     25.301275
     -2.967968     11.189015     11.189015     22.378030
     -2.957958     10.998792     10.998792     21.997583
     -2.947948     12.380727     12.380727     24.761455
     -2.937938     15.448351     15.448351     30.896702
     -2.927928     20.031023     20.031023     40.062046
     -2.917918     25.642448     25.642448     51.284895
     -2.907908     31.538369     31.538369     63.076737
     -2.897898     36.863974     36.863974     73.727948
     -2.887888     40.858370     40.858370     81.716740
     -2.877878     43.051706     43.051706     86.103412
     -2.867868     43.379669     43.379669     86.759337
     -2.857858     42.163978     42.163978     84.327957
     -2.847848     39.961466     39.961466     79.922933
     -2.837838     37.344024     37.344024     74.688047
     -2.827828     34.705450     34.705450     69.410901
     -2.817818     32.178312     32.178312     64.356624
     -2.807808     29.688208     29.688208     59.376417
     -2.797798     27.102831     27.102831     54.205662
     -2.787788     24.386791     24.386791     48.773583
     -2.777778     21.676191     21.676191     43.352382
     -2.767768     19.237265     19.237265     38.474531
     -2.757758     17.342103     17.342103     34.684206
     -2.747748     16.141648     16.141648     32.283295
     -2.737738     15.614337     15.614337     31.228674
     -2.727728     15.618713     15.618713     31.237427
     -2.717718     16.010398     16.010398     32.020796
     -2.707708     16.740882     16.740882     33.481763
     -2.697698     17.867174     17.867174     35.734349
     -2.687688     19.462708     19.462708     38.925416
     -2.677678     21.491689     21.491689     42.983378
     -2.667668     23.741278     23.741278     47.482557
     -2.657658     25.872338     25.872338     51.744677
     -2.647648     27.569368     27.569368     55.138736
     -2.637638     28.698513     28.698513     57.397026
     -2.627628     29.371616     29.371616     58.743233
     -2.617618     29.874204     29.874204     59.748409
     -2.607608     30.503621     30.503621     61.007242
     -2.597598     31.416381     31.416381     62.832762
     -2.587588     32.565405     32.565405     65.130811
     -2.577578     33.738469     33.738469     67.476938
     -2.567568     34.646764     34.646764     69.293529
     -2.557558     35.002755     35.002755     70.005510
     -2.547548     34.566202     34.566202     69.132404
     -2.537538     33.181166     33.181166     66.362333
     -2.527528     30.831973     30.831973     61.663946
     -2.517518     27.710319     27.710319     55.420637
     -2.507508     24.246506     24.246506     48.493012
     -2.497497     21.055273     21.055273     42.110546
     -2.487487     18.787941     18.787941     37.575883
     -2.477477     17.938690     17.938690     35.877379
     -2.467467     18.685614     18.685614     37.371227
     -2.457457     20.837790     20.837790     41.675579
     -2.447447     23.914902     23.914902     47.829805
     -2.437437     27.328622     27.328622     54.657243
     -2.427427     30.589712     30.589712     61.179425
     -2.417417     33.451117     33.451117     66.902234
     -2.407407     35.923323     35.923323     71.846647
     -2.397397     38.156158     38.156158     76.312315
     -2.387387     40.246287     40.246287     80.492574
     -2.377377     42.070777     42.070777     84.141555
     -2.367367     43.241005     43.241005     86.482010
     -2.357357     43.216239     43.216239     86.432477
     -2.347347     41.535668     41.535668     83.071336
     -2.337337     38.062194     38.062194     76.124389
     -2.327327     33.118820     33.118820     66.237641
     -2.317317     27.449552     27.449552     54.899105
     -2.307307     22.023271     22.023271     44.046543
     -2.297297     17.770074     17.770074     35.540148
     -2.287287     15.356556     15.356556     30.713112
     -2.277277     15.069029     15.069029     30.138057
     -2.267267     16.814427     16.814427     33.628855
     -2.257257     20.204307     20.204307     40.408614
     -2.247247     24.673432     24.673432     49.346863
     -2.237237     29.593566     29.593566     59.187131
     -2.227227     34.359990     34.359990     68.719980
     -2.217217     38.443994     38.443994     76.887988
     -2.207207     41.417789     41.417789     82.835577
     -2.197197     42.968501     42.968501     85.937002
     -2.187187     42.920364     42.920364     85.840728
     -2.177177     41.272830     41.272830     82.545659
     -2.167167     38.238640     38.238640     76.477279
     -2.157157     34.244672     34.244672     68.489344
     -2.147147     29.860745     29.860745     59.721490
     -2.137137     25.656474     25.656474     51.312948
     -2.127127     22.036115     22.036115     44.072231
     -2.117117     19.129746     19.129746     38.259492
     -2.107107     16.799182     16.799182     33.598365
     -2.097097     14.756382     14.756382     29.512764
     -2.087087     12.730413     12.730413     25.460826
     -2.077077     10.597930     10.597930     21.195861
     -2.067067      8.422748      8.422748     16.845496
     -2.057057      6.407010      6.407010     12.814020
     -2.047047      4.799594      4.799594      9.599188
     -2.037037      3.812894      3.812894      7.625788
     -2.027027      3.573499      3.573499      7.146997
     -2.017017      4.101720      4.101720      8.203439
     -2.007007      5.303055      5.303055     10.606110
     -1.996997      6.965706      6.965706     13.931413
     -1.986987      8.777226      8.777226     17.554452
     -1.976977     10.379385     10.379385     20.758770
     -1.966967     11.463506     11.463506     22.927011
     -1.956957     11.878157     11.878157     23.756315
     -1.946947     11.699809     11.699809     23.399618
     -1.936937     11.223705     11.223705     22.447410
     -1.926927     10.866937     10.866937     21.733875
     -1.916917     11.018767     11.018767     22.037533
     -1.906907     11.899264     11.899264     23.798527
     -1.896897     13.482375     13.482375     26.964751
     -1.886887     15.508761     15.508761     31.017523
     -1.876877     17.575648     17.575648     35.151296
     -1.866867     19.264613     19.264613     38.529226
     -1.856857     20.262544     20.262544     40.525088
     -1.846847     20.441894     20.441894     40.883789
     -1.836837     19.882595     19.882595     39.765191
     -1.826827     18.831912     18.831912     37.663824
     -1.816817     17.611488     17.611488     35.222975
     -1.806807     16.497515     16.497515     32.995031
     -1.796797     15.617094     15.617094     31.234189
     -1.786787     14.907317     14.907317     29.814634
     -1.776777     14.161015     14.161015     28.322030
     -1.766767     13.140149     13.140149     26.280298
     -1.756757     11.700097     11.700097     23.400195
     -1.746747      9.862550      9.862550     19.725099
     -1.736737      7.806573      7.806573     15.613146
     -1.726727      5.794845      5.794845     11.589690
     -1.716717      4.083303      4.083303      8.166606
     -1.706707      2.860133      2.860133      5.720267
     -1.696697      2.231411      2.231411      4.462822
     -1.686687      2.238466      2.238466      4.476932
     -1.676677      2.876447      2.876447      5.752893
     -1.666667      4.091025      4.091025      8.182051
     -1.656657      5.753201      5.753201     11.506401
     -1.646647      7.635603      7.635603     15.271206
     -1.636637      9.422674      9.422674     18.845348
     -1.626627     10.773933     10.773933     21.547865
