# EIG2DOS: Utility for SIESTA to obtain the electronic density of states
#  E. Artacho, Apr 1999, A. Garcia, Apr 2012
#  Nick R. Papior, Feb 2017
# ------------------------------------------
# Eigenvalues calculated from a non-polarized calculation
# Eigenvalues read from siesta.EIG
# Kpoint weights read from siesta.KP
# Using smearing parameter:   0.0500
# Using 1000 points in the energy range
# Selected bands: 1 to: 2981
# Emin, Emax in file for selected band(s):    -27.0450146    218.3319080
# Nbands, Nspin, Nk   =   2981     1     1
# E_F                 =    -4.2780 eV --> (shifted to ZERO)
# Broadening          =     0.0500 eV
#
#        E            N(up)  (=)   N(down)         Ntot
     -5.000000     39.958359     39.958359     79.916717
     -4.989990     41.716208     41.716208     83.432416
     -4.979980     43.078356     43.078356     86.156712
     -4.969970     43.719687     43.719687     87.439374
     -4.959960     43.381492     43.381492     86.762984
     -4.949950     41.975282     41.975282     83.950565
     -4.939940     39.631374     39.631374     79.262747
     -4.929930     36.693832     36.693832     73.387663
     -4.919920     33.682390     33.682390     67.364781
     -4.909910     31.236689     31.236689     62.473377
     -4.899900     30.036743     30.036743     60.073485
     -4.889890     30.677789     30.677789     61.355577
     -4.879880     33.491062     33.491062     66.982125
     -4.869870     38.349676     38.349676     76.699352
     -4.859860     44.552560     44.552560     89.105119
     -4.849850     50.890385     50.890385    101.780771
     -4.839840     55.933463     55.933463    111.866926
     -4.829830     58.463884     58.463884    116.927767
     -4.819820     57.874692     57.874692    115.749385
     -4.809810     54.351892     54.351892    108.703784
     -4.799800     48.757538     48.757538     97.515076
     -4.789790     42.283650     42.283650     84.567300
     -4.779780     36.051128     36.051128     72.102257
     -4.769770     30.825233     30.825233     61.650466
     -4.759760     26.926679     26.926679     53.853358
     -4.749750     24.307811     24.307811     48.615623
     -4.739740     22.703486     22.703486     45.406972
     -4.729730     21.772330     21.772330     43.544660
     -4.719720     21.186514     21.186514     42.373027
     -4.709710     20.669400     20.669400     41.338799
     -4.699700     20.003105     20.003105     40.006209
     -4.689690     19.033468     19.033468     38.066935
     -4.679680     17.692869     17.692869     35.385738
     -4.669670     16.044054     16.044054     32.088108
     -4.659660     14.326398     14.326398     28.652797
     -4.649650     12.971788     12.971788     25.943577
     -4.639640     12.559913     12.559913     25.119825
     -4.629630     13.701194     13.701194     27.402389
     -4.619620     16.861262     16.861262     33.722525
     -4.609610     22.167179     22.167179     44.334358
     -4.599600     29.258882     29.258882     58.517765
     -4.589590     37.260103     37.260103     74.520205
     -4.579580     44.923796     44.923796     89.847592
     -4.569570     50.946976     50.946976    101.893952
     -4.559560     54.365812     54.365812    108.731623
     -4.549550     54.880126     54.880126    109.760252
     -4.539540     52.963522     52.963522    105.927044
     -4.529530     49.700172     49.700172     99.400344
     -4.519520     46.410448     46.410448     92.820896
     -4.509510     44.218997     44.218997     88.437995
     -4.499499     43.732885     43.732885     87.465770
     -4.489489     44.932979     44.932979     89.865958
     -4.479479     47.279768     47.279768     94.559536
     -4.469469     49.950465     49.950465     99.900930
     -4.459459     52.095148     52.095148    104.190297
     -4.449449     53.028552     53.028552    106.057103
     -4.439439     52.332206     52.332206    104.664411
     -4.429429     49.889370     49.889370     99.778739
     -4.419419     45.886876     45.886876     91.773752
     -4.409409     40.796283     40.796283     81.592567
     -4.399399     35.317708     35.317708     70.635415
     -4.389389     30.262842     30.262842     60.525683
     -4.379379     26.379627     26.379627     52.759253
     -4.369369     24.163513     24.163513     48.327025
     -4.359359     23.727601     23.727601     47.455202
     -4.349349     24.792489     24.792489     49.584978
     -4.339339     26.807853     26.807853     53.615706
     -4.329329     29.158039     29.158039     58.316079
     -4.319319     31.367083     31.367083     62.734167
     -4.309309     33.224206     33.224206     66.448412
     -4.299299     34.792370     34.792370     69.584740
     -4.289289     36.313225     36.313225     72.626449
     -4.279279     38.054897     38.054897     76.109794
     -4.269269     40.156426     40.156426     80.312851
     -4.259259     42.515467     42.515467     85.030934
     -4.249249     44.757715     44.757715     89.515430
     -4.239239     46.314756     46.314756     92.629512
     -4.229229     46.607074     46.607074     93.214147
     -4.219219     45.277462     45.277462     90.554924
     -4.209209     42.373670     42.373670     84.747341
     -4.199199     38.379896     38.379896     76.759792
     -4.189189     34.062896     34.062896     68.125793
     -4.179179     30.197951     30.197951     60.395902
     -4.169169     27.308121     27.308121     54.616242
     -4.159159     25.540699     25.540699     51.081397
     -4.149149     24.725240     24.725240     49.450479
     -4.139139     24.561067     24.561067     49.122134
     -4.129129     24.823749     24.823749     49.647497
     -4.119119     25.482380     25.482380     50.964760
     -4.109109     26.670851     26.670851     53.341701
     -4.099099     28.529826     28.529826     57.059652
     -4.089089     31.003959     31.003959     62.007918
     -4.079079     33.712877     33.712877     67.425753
     -4.069069     35.990841     35.990841     71.981681
     -4.059059     37.106888     37.106888     74.213777
     -4.049049     36.571995     36.571995     73.143989
     -4.039039     34.376858     34.376858     68.753717
     -4.029029     31.031491     31.031491     62.062983
     -4.019019     27.385656     27.385656     54.771312
     -4.009009     24.329290     24.329290     48.658580
     -3.998999     22.526571     22.526571     45.053141
     -3.988989     22.295961     22.295961     44.591923
     -3.978979     23.648307     23.648307     47.296613
     -3.968969     26.408175     26.408175     52.816351
     -3.958959     30.323611     30.323611     60.647221
     -3.948949     35.115531     35.115531     70.231063
     -3.938939     40.483206     40.483206     80.966412
     -3.928929     46.113459     46.113459     92.226918
     -3.918919     51.720032     51.720032    103.440063
     -3.908909     57.091977     57.091977    114.183953
     -3.898899     62.101572     62.101572    124.203144
     -3.888889     66.640180     66.640180    133.280360
     -3.878879     70.503555     70.503555    141.007109
     -3.868869     73.297802     73.297802    146.595604
     -3.858859     74.446064     74.446064    148.892129
     -3.848849     73.332327     73.332327    146.664653
     -3.838839     69.543579     69.543579    139.087158
     -3.828829     63.107032     63.107032    126.214064
     -3.818819     54.604752     54.604752    109.209503
     -3.808809     45.096487     45.096487     90.192974
     -3.798799     35.868017     35.868017     71.736035
     -3.788789     28.099432     28.099432     56.198864
     -3.778779     22.575290     22.575290     45.150580
     -3.768769     19.529239     19.529239     39.058478
     -3.758759     18.654388     18.654388     37.308775
     -3.748749     19.252987     19.252987     38.505974
     -3.738739     20.466516     20.466516     40.933033
     -3.728729     21.520832     21.520832     43.041664
     -3.718719     21.929431     21.929431     43.858862
     -3.708709     21.611297     21.611297     43.222593
     -3.698699     20.895659     20.895659     41.791317
     -3.688689     20.407071     20.407071     40.814142
     -3.678679     20.852805     20.852805     41.705610
     -3.668669     22.767333     22.767333     45.534666
     -3.658659     26.294300     26.294300     52.588599
     -3.648649     31.088128     31.088128     62.176256
     -3.638639     36.383091     36.383091     72.766182
     -3.628629     41.212783     41.212783     82.425565
     -3.618619     44.696161     44.696161     89.392322
     -3.608609     46.276463     46.276463     92.552926
     -3.598599     45.827569     45.827569     91.655139
     -3.588589     43.612086     43.612086     87.224172
     -3.578579     40.141135     40.141135     80.282270
     -3.568569     36.008971     36.008971     72.017943
     -3.558559     31.754442     31.754442     63.508885
     -3.548549     27.767183     27.767183     55.534365
     -3.538539     24.239855     24.239855     48.479710
     -3.528529     21.170723     21.170723     42.341446
     -3.518519     18.421773     18.421773     36.843546
     -3.508509     15.820590     15.820590     31.641179
     -3.498498     13.268489     13.268489     26.536978
     -3.488488     10.807485     10.807485     21.614970
     -3.478478      8.617406      8.617406     17.234811
     -3.468468      6.949687      6.949687     13.899375
     -3.458458      6.031285      6.031285     12.062570
     -3.448448      5.976707      5.976707     11.953414
     -3.438438      6.734521      6.734521     13.469042
     -3.428428      8.081660      8.081660     16.163321
     -3.418418      9.670837      9.670837     19.341675
     -3.408408     11.126983     11.126983     22.253966
     -3.398398     12.170994     12.170994     24.341988
     -3.388388     12.728760     12.728760     25.457520
     -3.378378     12.977430     12.977430     25.954859
     -3.368368     13.301396     13.301396     26.602792
     -3.358358     14.170258     14.170258     28.340516
     -3.348348     15.985503     15.985503     31.971006
     -3.338338     18.949565     18.949565     37.899129
     -3.328328     22.989397     22.989397     45.978793
     -3.318318     27.738506     27.738506     55.477012
     -3.308308     32.570586     32.570586     65.141171
     -3.298298     36.687150     36.687150     73.374301
     -3.288288     39.268300     39.268300     78.536599
     -3.278278     39.675359     39.675359     79.350718
     -3.268268     37.650160     37.650160     75.300320
     -3.258258     33.424542     33.424542     66.849084
     -3.248248     27.673415     27.673415     55.346831
     -3.238238     21.315910     21.315910     42.631820
     -3.228228     15.247306     15.247306     30.494611
     -3.218218     10.115824     10.115824     20.231648
     -3.208208      6.224338      6.224338     12.448677
     -3.198198      3.566397      3.566397      7.132795
     -3.188188      1.946968      1.946968      3.893936
     -3.178178      1.120502      1.120502      2.241004
     -3.168168      0.897988      0.897988      1.795976
     -3.158158      1.205649      1.205649      2.411299
     -3.148148      2.098702      2.098702      4.197405
     -3.138138      3.737947      3.737947      7.475894
     -3.128128      6.333038      6.333038     12.666076
     -3.118118     10.056224     10.056224     20.112447
     -3.108108     14.940457     14.940457     29.880913
     -3.098098     20.791843     20.791843     41.583686
     -3.088088     27.155758     27.155758     54.311517
     -3.078078     33.366228     33.366228     66.732456
     -3.068068     38.677374     38.677374     77.354748
     -3.058058     42.437413     42.437413     84.874825
     -3.048048     44.242528     44.242528     88.485057
     -3.038038     44.016268     44.016268     88.032535
     -3.028028     41.996436     41.996436     83.992873
     -3.018018     38.652943     38.652943     77.305885
     -3.008008     34.580734     34.580734     69.161468
     -2.997998     30.403084     30.403084     60.806167
     -2.987988     26.696299     26.696299     53.392599
     -2.977978     23.930886     23.930886     47.861773
     -2.967968     22.426795     22.426795     44.853591
     -2.957958     22.330748     22.330748     44.661495
     -2.947948     23.623004     23.623004     47.246009
     -2.937938     26.144916     26.144916     52.289833
     -2.927928     29.623840     29.623840     59.247680
     -2.917918     33.679017     33.679017     67.358034
     -2.907908     37.820840     37.820840     75.641679
     -2.897898     41.481110     41.481110     82.962221
     -2.887888     44.104910     44.104910     88.209819
     -2.877878     45.292285     45.292285     90.584570
     -2.867868     44.929562     44.929562     89.859123
     -2.857858     43.234847     43.234847     86.469694
     -2.847848     40.677459     40.677459     81.354918
     -2.837838     37.797640     37.797640     75.595280
     -2.827828     35.009546     35.009546     70.019093
     -2.817818     32.481729     32.481729     64.963458
     -2.807808     30.148010     30.148010     60.296020
     -2.797798     27.831762     27.831762     55.663524
     -2.787788     25.407727     25.407727     50.815453
     -2.777778     22.910148     22.910148     45.820296
     -2.767768     20.531717     20.531717     41.063434
     -2.757758     18.523593     18.523593     37.047185
     -2.747748     17.064508     17.064508     34.129016
     -2.737738     16.182703     16.182703     32.365406
     -2.727728     15.778249     15.778249     31.556497
     -2.717718     15.726777     15.726777     31.453555
     -2.707708     15.990594     15.990594     31.981189
     -2.697698     16.656268     16.656268     33.312536
     -2.687688     17.866125     17.866125     35.732250
     -2.677678     19.684642     19.684642     39.369283
     -2.667668     21.990451     21.990451     43.980902
     -2.657658     24.474498     24.474498     48.948995
     -2.647648     26.757900     26.757900     53.515801
     -2.637638     28.562640     28.562640     57.125279
     -2.627628     29.830085     29.830085     59.660170
     -2.617618     30.715330     30.715330     61.430660
     -2.607608     31.467210     31.467210     62.934420
     -2.597598     32.275621     32.275621     64.551243
     -2.587588     33.177779     33.177779     66.355559
     -2.577578     34.060742     34.060742     68.121483
     -2.567568     34.727251     34.727251     69.454502
     -2.557558     34.963010     34.963010     69.926021
     -2.547548     34.572470     34.572470     69.144940
     -2.537538     33.400761     33.400761     66.801521
     -2.527528     31.378933     31.378933     62.757866
     -2.517518     28.599184     28.599184     57.198368
     -2.507508     25.377123     25.377123     50.754245
     -2.497497     22.238700     22.238700     44.477400
     -2.487487     19.802390     19.802390     39.604780
     -2.477477     18.590216     18.590216     37.180432
     -2.467467     18.849599     18.849599     37.699198
     -2.457457     20.470645     20.470645     40.941290
     -2.447447     23.040643     23.040643     46.081287
     -2.437437     26.013915     26.013915     52.027829
     -2.427427     28.921853     28.921853     57.843706
     -2.417417     31.528733     31.528733     63.057466
     -2.407407     33.862327     33.862327     67.724654
     -2.397397     36.105451     36.105451     72.210902
     -2.387387     38.400637     38.400637     76.801273
     -2.377377     40.665154     40.665154     81.330308
     -2.367367     42.515234     42.515234     85.030469
     -2.357357     43.352376     43.352376     86.704753
     -2.347347     42.588309     42.588309     85.176617
     -2.337337     39.913398     39.913398     79.826796
     -2.327327     35.484402     35.484402     70.968804
     -2.317317     29.941628     29.941628     59.883257
     -2.307307     24.247011     24.247011     48.494022
     -2.297297     19.417090     19.417090     38.834180
     -2.287287     16.261829     16.261829     32.523657
     -2.277277     15.217815     15.217815     30.435630
     -2.267267     16.307467     16.307467     32.614933
     -2.257257     19.203393     19.203393     38.406786
     -2.247247     23.351914     23.351914     46.703828
     -2.237237     28.109403     28.109403     56.218806
     -2.227227     32.855789     32.855789     65.711577
     -2.217217     37.063555     37.063555     74.127111
     -2.207207     40.318822     40.318822     80.637645
     -2.197197     42.312873     42.312873     84.625746
     -2.187187     42.837450     42.837450     85.674900
     -2.177177     41.810772     41.810772     83.621544
     -2.167167     39.330512     39.330512     78.661024
     -2.157157     35.713181     35.713181     71.426363
     -2.147147     31.466769     31.466769     62.933539
     -2.137137     27.173442     27.173442     54.346884
     -2.127127     23.317421     23.317421     46.634842
     -2.117117     20.139157     20.139157     40.278314
     -2.107107     17.593252     17.593252     35.186503
     -2.097097     15.431975     15.431975     30.863951
     -2.087087     13.365225     13.365225     26.730449
     -2.077077     11.209274     11.209274     22.418549
     -2.067067      8.953552      8.953552     17.907103
     -2.057057      6.729992      6.729992     13.459983
     -2.047047      4.723257      4.723257      9.446515
     -2.037037      3.080429      3.080429      6.160858
     -2.027027      1.862081      1.862081      3.724161
     -2.017017      1.043143      1.043143      2.086286
     -2.007007      0.545884      0.545884      1.091767
     -1.996997      0.280277      0.280277      0.560553
     -1.986987      0.175160      0.175160      0.350320
     -1.976977      0.195827      0.195827      0.391655
     -1.966967      0.351300      0.351300      0.702599
     -1.956957      0.694958      0.694958      1.389917
     -1.946947      1.318117      1.318117      2.636235
     -1.936937      2.332281      2.332281      4.664562
     -1.926927      3.836605      3.836605      7.673210
     -1.916917      5.873995      5.873995     11.747990
     -1.906907      8.389327      8.389327     16.778653
     -1.896897     11.209379     11.209379     22.418758
     -1.886887     14.059737     14.059737     28.119475
     -1.876877     16.619178     16.619178     33.238356
     -1.866867     18.595235     18.595235     37.190470
     -1.856857     19.796087     19.796087     39.592174
     -1.846847     20.176967     20.176967     40.353934
     -1.836837     19.848287     19.848287     39.696574
     -1.826827     19.040976     19.040976     38.081952
     -1.816817     18.032880     18.032880     36.065759
     -1.806807     17.053662     17.053662     34.107324
     -1.796797     16.202631     16.202631     32.405262
     -1.786787     15.420301     15.420301     30.840601
     -1.776777     14.536337     14.536337     29.072674
     -1.766767     13.377360     13.377360     26.754720
     -1.756757     11.882222     11.882222     23.764445
     -1.746747     10.166064     10.166064     20.332128
     -1.736737      8.502956      8.502956     17.005911
     -1.726727      7.239776      7.239776     14.479551
     -1.716717      6.683281      6.683281     13.366563
     -1.706707      7.005023      7.005023     14.010045
     -1.696697      8.192397      8.192397     16.384794
     -1.686687     10.054024     10.054024     20.108048
     -1.676677     12.271860     12.271860     24.543720
     -1.666667     14.480583     14.480583     28.961165
     -1.656657     16.346766     16.346766     32.693532
     -1.646647     17.622038     17.622038     35.244075
     -1.636637     18.160129     18.160129     36.320257
     -1.626627     17.910232     17.910232     35.820465
