# EIG2DOS: Utility for SIESTA to obtain the electronic density of states
#  E. Artacho, Apr 1999, A. Garcia, Apr 2012
#  Nick R. Papior, Feb 2017
# ------------------------------------------
# Eigenvalues calculated from a non-polarized calculation
# Eigenvalues read from siesta.EIG
# Kpoint weights read from siesta.KP
# Using smearing parameter:   0.0500
# Using 1000 points in the energy range
# Selected bands: 1 to: 2981
# Emin, Emax in file for selected band(s):    -27.0784021    218.3228710
# Nbands, Nspin, Nk   =   2981     1     1
# E_F                 =    -4.2881 eV --> (shifted to ZERO)
# Broadening          =     0.0500 eV
#
#        E            N(up)  (=)   N(down)         Ntot
     -5.000000     44.619560     44.619560     89.239120
     -4.989990     47.196730     47.196730     94.393459
     -4.979980     48.584621     48.584621     97.169243
     -4.969970     48.734157     48.734157     97.468313
     -4.959960     47.685005     47.685005     95.370010
     -4.949950     45.562799     45.562799     91.125598
     -4.939940     42.590429     42.590429     85.180859
     -4.929930     39.104555     39.104555     78.209109
     -4.919920     35.565304     35.565304     71.130609
     -4.909910     32.546697     32.546697     65.093393
     -4.899900     30.691220     30.691220     61.382441
     -4.889890     30.607859     30.607859     61.215719
     -4.879880     32.704592     32.704592     65.409184
     -4.869870     36.986167     36.986167     73.972335
     -4.859860     42.901350     42.901350     85.802700
     -4.849850     49.348499     49.348499     98.696998
     -4.839840     54.904427     54.904427    109.808854
     -4.829830     58.232897     58.232897    116.465793
     -4.819820     58.515818     58.515818    117.031636
     -4.809810     55.712167     55.712167    111.424333
     -4.799800     50.524783     50.524783    101.049567
     -4.789790     44.103196     44.103196     88.206392
     -4.779780     37.637622     37.637622     75.275244
     -4.769770     32.027907     32.027907     64.055815
     -4.759760     27.736585     27.736585     55.473170
     -4.749750     24.821735     24.821735     49.643470
     -4.739740     23.068862     23.068862     46.137723
     -4.729730     22.133203     22.133203     44.266406
     -4.719720     21.642601     21.642601     43.285202
     -4.709710     21.254823     21.254823     42.509646
     -4.699700     20.687185     20.687185     41.374369
     -4.689690     19.739949     19.739949     39.479898
     -4.679680     18.327052     18.327052     36.654103
     -4.669670     16.514254     16.514254     33.028509
     -4.659660     14.550451     14.550451     29.100901
     -4.649650     12.869364     12.869364     25.738727
     -4.639640     12.041865     12.041865     24.083731
     -4.629630     12.672026     12.672026     25.344052
     -4.619620     15.246638     15.246638     30.493277
     -4.609610     19.965154     19.965154     39.930307
     -4.599600     26.595469     26.595469     53.190937
     -4.589590     34.416407     34.416407     68.832815
     -4.579580     42.304242     42.304242     84.608485
     -4.569570     48.981520     48.981520     97.963040
     -4.559560     53.375181     53.375181    106.750363
     -4.549550     54.960983     54.960983    109.921965
     -4.539540     53.949174     53.949174    107.898348
     -4.529530     51.218006     51.218006    102.436013
     -4.519520     48.008492     48.008492     96.016983
     -4.509510     45.501161     45.501161     91.002322
     -4.499499     44.445682     44.445682     88.891364
     -4.489489     44.981758     44.981758     89.963515
     -4.479479     46.694949     46.694949     93.389898
     -4.469469     48.846083     48.846083     97.692165
     -4.459459     50.651008     50.651008    101.302017
     -4.449449     51.494432     51.494432    102.988863
     -4.439439     51.023667     51.023667    102.047334
     -4.429429     49.142814     49.142814     98.285627
     -4.419419     45.969796     45.969796     91.939592
     -4.409409     41.807418     41.807418     83.614836
     -4.399399     37.131493     37.131493     74.262985
     -4.389389     32.556108     32.556108     65.112216
     -4.379379     28.734952     28.734952     57.469904
     -4.369369     26.201832     26.201832     52.403664
     -4.359359     25.209550     25.209550     50.419100
     -4.349349     25.649318     25.649318     51.298637
     -4.339339     27.102041     27.102041     54.204082
     -4.329329     29.006456     29.006456     58.012913
     -4.319319     30.870061     30.870061     61.740123
     -4.309309     32.431949     32.431949     64.863898
     -4.299299     33.716533     33.716533     67.433066
     -4.289289     34.969364     34.969364     69.938729
     -4.279279     36.509913     36.509913     73.019826
     -4.269269     38.556345     38.556345     77.112691
     -4.259259     41.079452     41.079452     82.158904
     -4.249249     43.737746     43.737746     87.475491
     -4.239239     45.932282     45.932282     91.864565
     -4.229229     46.986053     46.986053     93.972106
     -4.219219     46.396777     46.396777     92.793555
     -4.209209     44.058857     44.058857     88.117715
     -4.199199     40.342274     40.342274     80.684547
     -4.189189     35.975815     35.975815     71.951630
     -4.179179     31.783278     31.783278     63.566556
     -4.169169     28.400983     28.400983     56.801966
     -4.159159     26.110224     26.110224     52.220449
     -4.149149     24.847994     24.847994     49.695987
     -4.139139     24.362327     24.362327     48.724655
     -4.129129     24.412908     24.412908     48.825816
     -4.119119     24.910402     24.910402     49.820805
     -4.109109     25.929564     25.929564     51.859129
     -4.099099     27.595089     27.595089     55.190177
     -4.089089     29.901461     29.901461     59.802921
     -4.079079     32.567747     32.567747     65.135495
     -4.069069     35.024184     35.024184     70.048368
     -4.059059     36.568892     36.568892     73.137784
     -4.049049     36.639791     36.639791     73.279583
     -4.039039     35.070783     35.070783     70.141565
     -4.029029     32.196360     32.196360     64.392720
     -4.019019     28.746894     28.746894     57.493787
     -4.009009     25.591611     25.591611     51.183222
     -3.998999     23.463508     23.463508     46.927017
     -3.988989     22.792167     22.792167     45.584333
     -3.978979     23.689761     23.689761     47.379522
     -3.968969     26.043476     26.043476     52.086951
     -3.958959     29.625610     29.625610     59.251221
     -3.948949     34.158869     34.158869     68.317739
     -3.938939     39.335188     39.335188     78.670377
     -3.928929     44.828403     44.828403     89.656805
     -3.918919     50.333546     50.333546    100.667092
     -3.908909     55.622388     55.622388    111.244775
     -3.898899     60.568361     60.568361    121.136722
     -3.888889     65.099049     65.099049    130.198099
     -3.878879     69.081314     69.081314    138.162627
     -3.868869     72.200877     72.200877    144.401753
     -3.858859     73.923864     73.923864    147.847727
     -3.848849     73.599599     73.599599    147.199198
     -3.838839     70.691494     70.691494    141.382989
     -3.828829     65.044556     65.044556    130.089111
     -3.818819     57.061049     57.061049    114.122098
     -3.808809     47.687022     47.687022     95.374043
     -3.798799     38.198173     38.198173     76.396346
     -3.788789     29.865827     29.865827     59.731654
     -3.778779     23.631358     23.631358     47.262716
     -3.768769     19.900470     19.900470     39.800939
     -3.758759     18.507551     18.507551     37.015102
     -3.748749     18.834833     18.834833     37.669667
     -3.738739     20.030504     20.030504     40.061007
     -3.728729     21.259148     21.259148     42.518295
     -3.718719     21.924885     21.924885     43.849770
     -3.708709     21.819917     21.819917     43.639833
     -3.698699     21.165100     21.165100     42.330200
     -3.688689     20.527866     20.527866     41.055732
     -3.678679     20.629986     20.629986     41.259971
     -3.668669     22.091562     22.091562     44.183124
     -3.658659     25.188256     25.188256     50.376513
     -3.648649     29.709438     29.709438     59.418876
     -3.638639     34.980386     34.980386     69.960772
     -3.628629     40.051202     40.051202     80.102404
     -3.618619     43.982287     43.982287     87.964575
     -3.608609     46.111389     46.111389     92.222777
     -3.598599     46.200604     46.200604     92.401208
     -3.588589     44.427168     44.427168     88.854335
     -3.578579     41.256517     41.256517     82.513035
     -3.568569     37.273430     37.273430     74.546860
     -3.558559     33.033749     33.033749     66.067499
     -3.548549     28.962135     28.962135     57.924270
     -3.538539     25.296815     25.296815     50.593631
     -3.528529     22.081719     22.081719     44.163437
     -3.518519     19.211157     19.211157     38.422313
     -3.508509     16.521194     16.521194     33.042389
     -3.498498     13.897127     13.897127     27.794254
     -3.488488     11.351005     11.351005     22.702011
     -3.478478      9.034944      9.034944     18.069889
     -3.468468      7.188723      7.188723     14.377447
     -3.458458      6.050144      6.050144     12.100287
     -3.448448      5.765732      5.765732     11.531464
     -3.438438      6.329747      6.329747     12.659494
     -3.428428      7.565987      7.565987     15.131973
     -3.418418      9.159046      9.159046     18.318092
     -3.408408     10.735041     10.735041     21.470081
     -3.398398     11.977219     11.977219     23.954437
     -3.388388     12.740687     12.740687     25.481374
     -3.378378     13.118228     13.118228     26.236457
     -3.368368     13.422116     13.422116     26.844232
     -3.358358     14.083835     14.083835     28.167669
     -3.348348     15.512446     15.512446     31.024891
     -3.338338     17.966179     17.966179     35.932359
     -3.328328     21.472662     21.472662     42.945324
     -3.318318     25.800368     25.800368     51.600736
     -3.308308     30.467567     30.467567     60.935134
     -3.298298     34.787381     34.787381     69.574761
     -3.288288     37.968435     37.968435     75.936870
     -3.278278     39.285321     39.285321     78.570642
     -3.268268     38.289430     38.289430     76.578860
     -3.258258     34.978687     34.978687     69.957375
     -3.248248     29.834461     29.834461     59.668922
     -3.238238     23.688427     23.688427     47.376854
     -3.228228     17.470648     17.470648     34.941295
     -3.218218     11.951293     11.951293     23.902585
     -3.208208      7.581837      7.581837     15.163674
     -3.198198      4.478580      4.478580      8.957160
     -3.188188      2.519723      2.519723      5.039446
     -3.178178      1.489636      1.489636      2.979273
     -3.168168      1.209377      1.209377      2.418753
     -3.158158      1.620408      1.620408      3.240815
     -3.148148      2.812654      2.812654      5.625307
     -3.138138      4.996908      4.996908      9.993817
     -3.128128      8.422102      8.422102     16.844204
     -3.118118     13.244878     13.244878     26.489756
     -3.108108     19.380610     19.380610     38.761219
     -3.098098     26.393169     26.393169     52.786338
     -3.088088     33.492529     33.492529     66.985058
     -3.078078     39.682368     39.682368     79.364736
     -3.068068     44.033371     44.033371     88.066741
     -3.058058     45.982505     45.982505     91.965009
     -3.048048     45.522770     45.522770     91.045539
     -3.038038     43.184863     43.184863     86.369726
     -3.028028     39.810956     39.810956     79.621912
     -3.018018     36.226952     36.226952     72.453904
     -3.008008     32.969729     32.969729     65.939459
     -2.997998     30.190440     30.190440     60.380881
     -2.987988     27.757585     27.757585     55.515169
     -2.977978     25.482750     25.482750     50.965500
     -2.967968     23.341155     23.341155     46.682311
     -2.957958     21.576624     21.576624     43.153248
     -2.947948     20.646402     20.646402     41.292805
     -2.937938     21.037149     21.037149     42.074299
     -2.927928     23.036393     23.036393     46.072786
     -2.917918     26.558118     26.558118     53.116236
     -2.907908     31.097611     31.097611     62.195222
     -2.897898     35.840435     35.840435     71.680870
     -2.887888     39.890622     39.890622     79.781244
     -2.877878     42.534742     42.534742     85.069483
     -2.867868     43.441220     43.441220     86.882439
     -2.857858     42.718515     42.718515     85.437030
     -2.847848     40.814153     40.814153     81.628307
     -2.837838     38.304390     38.304390     76.608781
     -2.827828     35.669796     35.669796     71.339591
     -2.817818     33.153161     33.153161     66.306322
     -2.807808     30.752151     30.752151     61.504303
     -2.797798     28.331760     28.331760     56.663521
     -2.787788     25.784465     25.784465     51.568930
     -2.777778     23.147622     23.147622     46.295244
     -2.767768     20.617150     20.617150     41.234299
     -2.757758     18.457859     18.457859     36.915717
     -2.747748     16.870358     16.870358     33.740715
     -2.737738     15.898452     15.898452     31.796905
     -2.727728     15.434666     15.434666     30.869332
     -2.717718     15.319278     15.319278     30.638555
     -2.707708     15.467456     15.467456     30.934912
     -2.697698     15.938418     15.938418     31.876836
     -2.687688     16.895520     16.895520     33.791039
     -2.677678     18.476935     18.476935     36.953871
     -2.667668     20.658367     20.658367     41.316734
     -2.657658     23.200372     23.200372     46.400744
     -2.647648     25.722895     25.722895     51.445790
     -2.637638     27.868504     27.868504     55.737009
     -2.627628     29.457187     29.457187     58.914375
     -2.617618     30.540448     30.540448     61.080896
     -2.607608     31.328886     31.328886     62.657772
     -2.597598     32.048472     32.048472     64.096945
     -2.587588     32.818060     32.818060     65.636120
     -2.577578     33.610185     33.610185     67.220371
     -2.567568     34.289004     34.289004     68.578007
     -2.557558     34.671489     34.671489     69.342979
     -2.547548     34.566587     34.566587     69.133175
     -2.537538     33.794351     33.794351     67.588702
     -2.527528     32.221635     32.221635     64.443271
     -2.517518     29.836589     29.836589     59.673178
     -2.507508     26.834232     26.834232     53.668464
     -2.497497     23.648255     23.648255     47.296510
     -2.487487     20.877688     20.877688     41.755377
     -2.477477     19.115733     19.115733     38.231465
     -2.467467     18.750340     18.750340     37.500680
     -2.457457     19.830262     19.830262     39.660523
     -2.447447     22.062468     22.062468     44.124936
     -2.437437     24.944506     24.944506     49.889011
     -2.427427     27.970917     27.970917     55.941833
     -2.417417     30.816952     30.816952     61.633904
     -2.407407     33.412618     33.412618     66.825235
     -2.397397     35.872878     35.872878     71.745755
     -2.387387     38.321904     38.321904     76.643808
     -2.377377     40.705071     40.705071     81.410143
     -2.367367     42.692579     42.692579     85.385157
     -2.357357     43.736233     43.736233     87.472467
     -2.347347     43.265972     43.265972     86.531945
     -2.337337     40.941961     40.941961     81.883922
     -2.327327     36.847380     36.847380     73.694760
     -2.317317     31.532699     31.532699     63.065398
     -2.307307     25.891074     25.891074     51.782148
     -2.297297     20.919424     20.919424     41.838848
     -2.287287     17.461455     17.461455     34.922909
     -2.277277     16.021056     16.021056     32.042111
     -2.267267     16.691165     16.691165     33.382329
     -2.257257     19.194441     19.194441     38.388882
     -2.247247     23.000110     23.000110     46.000220
     -2.237237     27.470008     27.470008     54.940015
     -2.227227     31.989193     31.989193     63.978386
     -2.217217     36.047990     36.047990     72.095981
     -2.207207     39.263561     39.263561     78.527123
     -2.197197     41.357671     41.357671     82.715341
     -2.187187     42.130264     42.130264     84.260527
     -2.177177     41.468022     41.468022     82.936045
     -2.167167     39.396508     39.396508     78.793017
     -2.157157     36.140285     36.140285     72.280570
     -2.147147     32.130594     32.130594     64.261188
     -2.137137     27.919921     27.919921     55.839842
     -2.127127     24.020596     24.020596     48.041193
     -2.117117     20.741575     20.741575     41.483151
     -2.107107     18.110314     18.110314     36.220628
     -2.097097     15.921945     15.921945     31.843890
     -2.087087     13.884874     13.884874     27.769747
     -2.077077     11.780100     11.780100     23.560200
     -2.067067      9.553532      9.553532     19.107063
     -2.057057      7.309206      7.309206     14.618412
     -2.047047      5.229619      5.229619     10.459238
     -2.037037      3.480290      3.480290      6.960581
     -2.027027      2.147633      2.147633      4.295266
     -2.017017      1.227576      1.227576      2.455152
     -2.007007      0.652505      0.652505      1.305011
     -1.996997      0.331786      0.331786      0.663572
     -1.986987      0.186200      0.186200      0.372401
     -1.976977      0.168919      0.168919      0.337837
     -1.966967      0.275088      0.275088      0.550176
     -1.956957      0.544498      0.544498      1.088996
     -1.946947      1.058461      1.058461      2.116921
     -1.936937      1.927367      1.927367      3.854733
     -1.926927      3.263959      3.263959      6.527919
     -1.916917      5.142009      5.142009     10.284018
     -1.906907      7.549682      7.549682     15.099364
     -1.896897     10.355933     10.355933     20.711866
     -1.886887     13.309307     13.309307     26.618615
     -1.876877     16.078238     16.078238     32.156476
     -1.866867     18.324743     18.324743     36.649486
     -1.856857     19.789133     19.789133     39.578266
     -1.846847     20.359011     20.359011     40.718021
     -1.836837     20.100720     20.100720     40.201440
     -1.826827     19.240530     19.240530     38.481061
     -1.816817     18.094561     18.094561     36.189122
     -1.806807     16.963311     16.963311     33.926623
     -1.796797     16.026795     16.026795     32.053590
     -1.786787     15.287474     15.287474     30.574948
     -1.776777     14.595140     14.595140     29.190280
     -1.766767     13.749246     13.749246     27.498492
     -1.756757     12.630343     12.630343     25.260687
     -1.746747     11.292569     11.292569     22.585138
     -1.736737      9.968470      9.968470     19.936940
     -1.726727      8.983867      8.983867     17.967734
     -1.716717      8.625425      8.625425     17.250850
     -1.706707      9.023233      9.023233     18.046467
     -1.696697     10.099433     10.099433     20.198866
     -1.686687     11.601394     11.601394     23.202787
     -1.676677     13.199556     13.199556     26.399112
     -1.666667     14.601130     14.601130     29.202260
     -1.656657     15.625069     15.625069     31.250138
     -1.646647     16.207332     16.207332     32.414664
     -1.636637     16.348517     16.348517     32.697034
     -1.626627     16.052193     16.052193     32.104386
