# EIG2DOS: Utility for SIESTA to obtain the electronic density of states
#  E. Artacho, Apr 1999, A. Garcia, Apr 2012
#  Nick R. Papior, Feb 2017
# ------------------------------------------
# Eigenvalues calculated from a non-polarized calculation
# Eigenvalues read from siesta.EIG
# Kpoint weights read from siesta.KP
# Using smearing parameter:   0.0500
# Using 1000 points in the energy range
# Selected bands: 1 to: 2981
# Emin, Emax in file for selected band(s):    -27.2733976    218.3837770
# Nbands, Nspin, Nk   =   2981     1     1
# E_F                 =    -4.2103 eV --> (shifted to ZERO)
# Broadening          =     0.0500 eV
#
#        E            N(up)  (=)   N(down)         Ntot
     -5.000000     35.446088     35.446088     70.892176
     -4.989990     39.939031     39.939031     79.878062
     -4.979980     43.554660     43.554660     87.109320
     -4.969970     45.661658     45.661658     91.323316
     -4.959960     45.893376     45.893376     91.786751
     -4.949950     44.269593     44.269593     88.539186
     -4.939940     41.196117     41.196117     82.392234
     -4.929930     37.365094     37.365094     74.730188
     -4.919920     33.614040     33.614040     67.228079
     -4.909910     30.790259     30.790259     61.580519
     -4.899900     29.627905     29.627905     59.255811
     -4.889890     30.617643     30.617643     61.235286
     -4.879880     33.863134     33.863134     67.726268
     -4.869870     38.965958     38.965958     77.931917
     -4.859860     45.018215     45.018215     90.036431
     -4.849850     50.766002     50.766002    101.532004
     -4.839840     54.931133     54.931133    109.862267
     -4.829830     56.585225     56.585225    113.170450
     -4.819820     55.422695     55.422695    110.845390
     -4.809810     51.814771     51.814771    103.629542
     -4.799800     46.628698     46.628698     93.257396
     -4.789790     40.905000     40.905000     81.810000
     -4.779780     35.538824     35.538824     71.077647
     -4.769770     31.085851     31.085851     62.171702
     -4.759760     27.735079     27.735079     55.470159
     -4.749750     25.411043     25.411043     50.822086
     -4.739740     23.925800     23.925800     47.851601
     -4.729730     23.103507     23.103507     46.207014
     -4.719720     22.831841     22.831841     45.663681
     -4.709710     23.035736     23.035736     46.071472
     -4.699700     23.607089     23.607089     47.214179
     -4.689690     24.348141     24.348141     48.696282
     -4.679680     24.983477     24.983477     49.966953
     -4.669670     25.260270     25.260270     50.520540
     -4.659660     25.101278     25.101278     50.202556
     -4.649650     24.730005     24.730005     49.460011
     -4.639640     24.681533     24.681533     49.363067
     -4.629630     25.655217     25.655217     51.310434
     -4.619620     28.240254     28.240254     56.480508
     -4.609610     32.617951     32.617951     65.235902
     -4.599600     38.378332     38.378332     76.756664
     -4.589590     44.559173     44.559173     89.118346
     -4.579580     49.925329     49.925329     99.850658
     -4.569570     53.391995     53.391995    106.783989
     -4.559560     54.416284     54.416284    108.832568
     -4.549550     53.185611     53.185611    106.371222
     -4.539540     50.522140     50.522140    101.044279
     -4.529530     47.552033     47.552033     95.104066
     -4.519520     45.287191     45.287191     90.574382
     -4.509510     44.289680     44.289680     88.579360
     -4.499499     44.535429     44.535429     89.070858
     -4.489489     45.500679     45.500679     91.001358
     -4.479479     46.407652     46.407652     92.815305
     -4.469469     46.517515     46.517515     93.035030
     -4.459459     45.360249     45.360249     90.720499
     -4.449449     42.834435     42.834435     85.668870
     -4.439439     39.172746     39.172746     78.345492
     -4.429429     34.822745     34.822745     69.645490
     -4.419419     30.313478     30.313478     60.626957
     -4.409409     26.159573     26.159573     52.319146
     -4.399399     22.811694     22.811694     45.623389
     -4.389389     20.626272     20.626272     41.252544
     -4.379379     19.823794     19.823794     39.647589
     -4.369369     20.433963     20.433963     40.867926
     -4.359359     22.261158     22.261158     44.522315
     -4.349349     24.912702     24.912702     49.825405
     -4.339339     27.903917     27.903917     55.807833
     -4.329329     30.806826     30.806826     61.613652
     -4.319319     33.377755     33.377755     66.755511
     -4.309309     35.604890     35.604890     71.209781
     -4.299299     37.655005     37.655005     75.310010
     -4.289289     39.743718     39.743718     79.487437
     -4.279279     41.982460     41.982460     83.964919
     -4.269269     44.261264     44.261264     88.522528
     -4.259259     46.216008     46.216008     92.432016
     -4.249249     47.306591     47.306591     94.613183
     -4.239239     46.996914     46.996914     93.993828
     -4.229229     44.980725     44.980725     89.961449
     -4.219219     41.359326     41.359326     82.718652
     -4.209209     36.678326     36.678326     73.356652
     -4.199199     31.785810     31.785810     63.571620
     -4.189189     27.561253     27.561253     55.122506
     -4.179179     24.633040     24.633040     49.266079
     -4.169169     23.209946     23.209946     46.419891
     -4.159159     23.093954     23.093954     46.187907
     -4.149149     23.852954     23.852954     47.705909
     -4.139139     25.059471     25.059471     50.118943
     -4.129129     26.477272     26.477272     52.954544
     -4.119119     28.107440     28.107440     56.214881
     -4.109109     30.074751     30.074751     60.149502
     -4.099099     32.417054     32.417054     64.834107
     -4.089089     34.899333     34.899333     69.798667
     -4.079079     36.974979     36.974979     73.949958
     -4.069069     37.946177     37.946177     75.892354
     -4.059059     37.262178     37.262178     74.524356
     -4.049049     34.804521     34.804521     69.609041
     -4.039039     31.003868     31.003868     62.007736
     -4.029029     26.722940     26.722940     53.445880
     -4.019019     22.967782     22.967782     45.935564
     -4.009009     20.573772     20.573772     41.147545
     -3.998999     20.005716     20.005716     40.011431
     -3.988989     21.329585     21.329585     42.659171
     -3.978979     24.317792     24.317792     48.635584
     -3.968969     28.598647     28.598647     57.197293
     -3.958959     33.773156     33.773156     67.546312
     -3.948949     39.473716     39.473716     78.947432
     -3.938939     45.384901     45.384901     90.769802
     -3.928929     51.255247     51.255247    102.510494
     -3.918919     56.904456     56.904456    113.808911
     -3.908909     62.204639     62.204639    124.409279
     -3.898899     67.017746     67.017746    134.035492
     -3.888889     71.105934     71.105934    142.211867
     -3.878879     74.068619     74.068619    148.137237
     -3.868869     75.365196     75.365196    150.730392
     -3.858859     74.445417     74.445417    148.890834
     -3.848849     70.950803     70.950803    141.901606
     -3.838839     64.905680     64.905680    129.811361
     -3.828829     56.811190     56.811190    113.622380
     -3.818819     47.592188     47.592188     95.184377
     -3.808809     38.405744     38.405744     76.811488
     -3.798799     30.372929     30.372929     60.745859
     -3.788789     24.320731     24.320731     48.641463
     -3.778779     20.611520     20.611520     41.223039
     -3.768769     19.102807     19.102807     38.205614
     -3.758759     19.237457     19.237457     38.474913
     -3.748749     20.229773     20.229773     40.459545
     -3.738739     21.293740     21.293740     42.587480
     -3.728729     21.855849     21.855849     43.711698
     -3.718719     21.702282     21.702282     43.404563
     -3.708709     21.024956     21.024956     42.049913
     -3.698699     20.351512     20.351512     40.703024
     -3.688689     20.370656     20.370656     40.741313
     -3.678679     21.694585     21.694585     43.389170
     -3.668669     24.627097     24.627097     49.254194
     -3.658659     29.016636     29.016636     58.033272
     -3.648649     34.254867     34.254867     68.509734
     -3.638639     39.431679     39.431679     78.863358
     -3.628629     43.594024     43.594024     87.188047
     -3.618619     46.010800     46.010800     92.021601
     -3.608609     46.346679     46.346679     92.693358
     -3.598599     44.695476     44.695476     89.390952
     -3.588589     41.488774     41.488774     82.977549
     -3.578579     37.338438     37.338438     74.676877
     -3.568569     32.873873     32.873873     65.747747
     -3.558559     28.610512     28.610512     57.221024
     -3.548549     24.863940     24.863940     49.727880
     -3.538539     21.718627     21.718627     43.437254
     -3.528529     19.060587     19.060587     38.121174
     -3.518519     16.671001     16.671001     33.342003
     -3.508509     14.351308     14.351308     28.702616
     -3.498498     12.029196     12.029196     24.058392
     -3.488488      9.800268      9.800268     19.600535
     -3.478478      7.891775      7.891775     15.783549
     -3.468468      6.571355      6.571355     13.142711
     -3.458458      6.042236      6.042236     12.084473
     -3.448448      6.361961      6.361961     12.723922
     -3.438438      7.406798      7.406798     14.813596
     -3.428428      8.891723      8.891723     17.783446
     -3.418418     10.447055     10.447055     20.894110
     -3.408408     11.739396     11.739396     23.478793
     -3.398398     12.604095     12.604095     25.208189
     -3.388388     13.139981     13.139981     26.279962
     -3.378378     13.720751     13.720751     27.441501
     -3.368368     14.905453     14.905453     29.810906
     -3.358358     17.269403     17.269403     34.538806
     -3.348348     21.204934     21.204934     42.409868
     -3.338338     26.747889     26.747889     53.495779
     -3.328328     33.477038     33.477038     66.954075
     -3.318318     40.521929     40.521929     81.043858
     -3.308308     46.701255     46.701255     93.402511
     -3.298298     50.785986     50.785986    101.571972
     -3.288288     51.832170     51.832170    103.664339
     -3.278278     49.475973     49.475973     98.951946
     -3.268268     44.069042     44.069042     88.138084
     -3.258258     36.584517     36.584517     73.169035
     -3.248248     28.325926     28.325926     56.651851
     -3.238238     20.562727     20.562727     41.125455
     -3.228228     14.238736     14.238736     28.477471
     -3.218218      9.842360      9.842360     19.684720
     -3.208208      7.435274      7.435274     14.870549
     -3.198198      6.770584      6.770584     13.541169
     -3.188188      7.425428      7.425428     14.850856
     -3.178178      8.911547      8.911547     17.823094
     -3.168168     10.768747     10.768747     21.537495
     -3.158158     12.656278     12.656278     25.312556
     -3.148148     14.433650     14.433650     28.867301
     -3.138138     16.192440     16.192440     32.384880
     -3.128128     18.197779     18.197779     36.395558
     -3.118118     20.735611     20.735611     41.471221
     -3.108108     23.920058     23.920058     47.840116
     -3.098098     27.554786     27.554786     55.109571
     -3.088088     31.130547     31.130547     62.261095
     -3.078078     33.976893     33.976893     67.953787
     -3.068068     35.503177     35.503177     71.006354
     -3.058058     35.412180     35.412180     70.824360
     -3.048048     33.783021     33.783021     67.566042
     -3.038038     30.993202     30.993202     61.986405
     -3.028028     27.538435     27.538435     55.076870
     -3.018018     23.857916     23.857916     47.715832
     -3.008008     20.253471     20.253471     40.506942
     -2.997998     16.921651     16.921651     33.843302
     -2.987988     14.048346     14.048346     28.096692
     -2.977978     11.888717     11.888717     23.777434
     -2.967968     10.778219     10.778219     21.556438
     -2.957958     11.066655     11.066655     22.133311
     -2.947948     13.004263     13.004263     26.008527
     -2.937938     16.623255     16.623255     33.246510
     -2.927928     21.656391     21.656391     43.312781
     -2.917918     27.526173     27.526173     55.052347
     -2.907908     33.424930     33.424930     66.849860
     -2.897898     38.481668     38.481668     76.963337
     -2.887888     41.976677     41.976677     83.953354
     -2.877878     43.533364     43.533364     87.066727
     -2.867868     43.210126     43.210126     86.420251
     -2.857858     41.446181     41.446181     82.892363
     -2.847848     38.876317     38.876317     77.752634
     -2.837838     36.091637     36.091637     72.183274
     -2.827828     33.451716     33.451716     66.903431
     -2.817818     31.028557     31.028557     62.057115
     -2.807808     28.694809     28.694809     57.389617
     -2.797798     26.294461     26.294461     52.588923
     -2.787788     23.795689     23.795689     47.591379
     -2.777778     21.344054     21.344054     42.688108
     -2.767768     19.197990     19.197990     38.395979
     -2.757758     17.598687     17.598687     35.197374
     -2.747748     16.661306     16.661306     33.322611
     -2.737738     16.353500     16.353500     32.706999
     -2.727728     16.564680     16.564680     33.129360
     -2.717718     17.206398     17.206398     34.412796
     -2.707708     18.263883     18.263883     36.527766
     -2.697698     19.756918     19.756918     39.513837
     -2.687688     21.639848     21.639848     43.279696
     -2.677678     23.723786     23.723786     47.447572
     -2.667668     25.696743     25.696743     51.393485
     -2.657658     27.249854     27.249854     54.499708
     -2.647648     28.237089     28.237089     56.474178
     -2.637638     28.762392     28.762392     57.524785
     -2.627628     29.130264     29.130264     58.260529
     -2.617618     29.684613     29.684613     59.369225
     -2.607608     30.631688     30.631688     61.263377
     -2.597598     31.945377     31.945377     63.890753
     -2.587588     33.390363     33.390363     66.780725
     -2.577578     34.623145     34.623145     69.246289
     -2.567568     35.299318     35.299318     70.598636
     -2.557558     35.142805     35.142805     70.285609
     -2.547548     33.983603     33.983603     67.967206
     -2.537538     31.795595     31.795595     63.591190
     -2.527528     28.745780     28.745780     57.491559
     -2.517518     25.226105     25.226105     50.452209
     -2.507508     21.820944     21.820944     43.641888
     -2.497497     19.187567     19.187567     38.375134
     -2.487487     17.877015     17.877015     35.754029
     -2.477477     18.163258     18.163258     36.326516
     -2.467467     19.953974     19.953974     39.907948
     -2.457457     22.825335     22.825335     45.650669
     -2.447447     26.172550     26.172550     52.345101
     -2.437437     29.419623     29.419623     58.839247
     -2.427427     32.204760     32.204760     64.409519
     -2.417417     34.463780     34.463780     68.927559
     -2.407407     36.373201     36.373201     72.746403
     -2.397397     38.174743     38.174743     76.349487
     -2.387387     39.960388     39.960388     79.920775
     -2.377377     41.525197     41.525197     83.050393
     -2.367367     42.374411     42.374411     84.748823
     -2.357357     41.902193     41.902193     83.804386
     -2.347347     39.670015     39.670015     79.340030
     -2.337337     35.652256     35.652256     71.304511
     -2.327327     30.326152     30.326152     60.652304
     -2.317317     24.562709     24.562709     49.125418
     -2.307307     19.376199     19.376199     38.752398
     -2.297297     15.649742     15.649742     31.299483
     -2.287287     13.942790     13.942790     27.885581
     -2.277277     14.424277     14.424277     28.848553
     -2.267267     16.911331     16.911331     33.822662
     -2.257257     20.963341     20.963341     41.926682
     -2.247247     25.986707     25.986707     51.973414
     -2.237237     31.326700     31.326700     62.653401
     -2.227227     36.340196     36.340196     72.680392
     -2.217217     40.451418     40.451418     80.902835
     -2.207207     43.196519     43.196519     86.393038
     -2.197197     44.264891     44.264891     88.529782
     -2.187187     43.542362     43.542362     87.084723
     -2.177177     41.149592     41.149592     82.299185
     -2.167167     37.451862     37.451862     74.903723
     -2.157157     33.009066     33.009066     66.018132
     -2.147147     28.452608     28.452608     56.905217
     -2.137137     24.317089     24.317089     48.634177
     -2.127127     20.893851     20.893851     41.787701
     -2.117117     18.177630     18.177630     36.355260
     -2.107107     15.935077     15.935077     31.870153
     -2.097097     13.858659     13.858659     27.717318
     -2.087087     11.724807     11.724807     23.449613
     -2.077077      9.480514      9.480514     18.961028
     -2.067067      7.231068      7.231068     14.462135
     -2.057057      5.157653      5.157653     10.315307
     -2.047047      3.422183      3.422183      6.844366
     -2.037037      2.107217      2.107217      4.214435
     -2.027027      1.207177      1.207177      2.414353
     -2.017017      0.657979      0.657979      1.315957
     -2.007007      0.380873      0.380873      0.761746
     -1.996997      0.321524      0.321524      0.643047
     -1.986987      0.476585      0.476585      0.953170
     -1.976977      0.907050      0.907050      1.814100
     -1.966967      1.737176      1.737176      3.474352
     -1.956957      3.133436      3.133436      6.266871
     -1.946947      5.257007      5.257007     10.514014
     -1.936937      8.191787      8.191787     16.383574
     -1.926927     11.867197     11.867197     23.734393
     -1.916917     16.011283     16.011283     32.022565
     -1.906907     20.169869     20.169869     40.339739
     -1.896897     23.803070     23.803070     47.606140
     -1.886887     26.430382     26.430382     52.860764
     -1.876877     27.765069     27.765069     55.530137
     -1.866867     27.781120     27.781120     55.562240
     -1.856857     26.692228     26.692228     53.384457
     -1.846847     24.866014     24.866014     49.732027
     -1.836837     22.717449     22.717449     45.434898
     -1.826827     20.614859     20.614859     41.229718
     -1.816817     18.809589     18.809589     37.619179
     -1.806807     17.391345     17.391345     34.782691
     -1.796797     16.278867     16.278867     32.557734
     -1.786787     15.260827     15.260827     30.521654
     -1.776777     14.086472     14.086472     28.172943
     -1.766767     12.575326     12.575326     25.150652
     -1.756757     10.696195     10.696195     21.392391
     -1.746747      8.578086      8.578086     17.156172
     -1.736737      6.453646      6.453646     12.907292
     -1.726727      4.572180      4.572180      9.144361
     -1.716717      3.129305      3.129305      6.258610
     -1.706707      2.240739      2.240739      4.481479
     -1.696697      1.955685      1.955685      3.911370
     -1.686687      2.282603      2.282603      4.565205
     -1.676677      3.198609      3.198609      6.397218
     -1.666667      4.630916      4.630916      9.261831
     -1.656657      6.423312      6.423312     12.846624
     -1.646647      8.318310      8.318310     16.636620
     -1.636637      9.984930      9.984930     19.969860
     -1.626627     11.100648     11.100648     22.201295
