# EIG2DOS: Utility for SIESTA to obtain the electronic density of states
#  E. Artacho, Apr 1999, A. Garcia, Apr 2012
#  Nick R. Papior, Feb 2017
# ------------------------------------------
# Eigenvalues calculated from a non-polarized calculation
# Eigenvalues read from siesta.EIG
# Kpoint weights read from siesta.KP
# Using smearing parameter:   0.0500
# Using 1000 points in the energy range
# Selected bands: 1 to: 2981
# Emin, Emax in file for selected band(s):    -27.2861243    218.3640700
# Nbands, Nspin, Nk   =   2981     1     1
# E_F                 =    -4.2404 eV --> (shifted to ZERO)
# Broadening          =     0.0500 eV
#
#        E            N(up)  (=)   N(down)         Ntot
     -5.000000     32.672370     32.672370     65.344740
     -4.989990     36.955572     36.955572     73.911144
     -4.979980     40.823093     40.823093     81.646187
     -4.969970     43.673060     43.673060     87.346120
     -4.959960     45.007548     45.007548     90.015096
     -4.949950     44.595645     44.595645     89.191290
     -4.939940     42.560114     42.560114     85.120228
     -4.929930     39.364105     39.364105     78.728211
     -4.919920     35.720304     35.720304     71.440608
     -4.909910     32.465191     32.465191     64.930382
     -4.899900     30.426453     30.426453     60.852905
     -4.889890     30.282582     30.282582     60.565165
     -4.879880     32.404966     32.404966     64.809932
     -4.869870     36.701786     36.701786     73.403571
     -4.859860     42.529632     42.529632     85.059264
     -4.849850     48.756383     48.756383     97.512766
     -4.839840     54.013772     54.013772    108.027544
     -4.829830     57.082609     57.082609    114.165217
     -4.819820     57.265747     57.265747    114.531494
     -4.809810     54.587248     54.587248    109.174495
     -4.799800     49.731529     49.731529     99.463057
     -4.789790     43.762027     43.762027     87.524054
     -4.779780     37.758404     37.758404     75.516808
     -4.769770     32.527748     32.527748     65.055496
     -4.759760     28.480049     28.480049     56.960099
     -4.749750     25.663959     25.663959     51.327918
     -4.739740     23.894386     23.894386     47.788771
     -4.729730     22.893246     22.893246     45.786493
     -4.719720     22.392695     22.392695     44.785391
     -4.709710     22.186021     22.186021     44.372043
     -4.699700     22.135959     22.135959     44.271918
     -4.689690     22.160765     22.160765     44.321531
     -4.679680     22.219055     22.219055     44.438110
     -4.669670     22.308192     22.308192     44.616384
     -4.659660     22.480454     22.480454     44.960909
     -4.649650     22.869006     22.869006     45.738011
     -4.639640     23.704304     23.704304     47.408608
     -4.629630     25.294083     25.294083     50.588166
     -4.619620     27.944053     27.944053     55.888107
     -4.609610     31.820813     31.820813     63.641625
     -4.599600     36.800295     36.800295     73.600590
     -4.589590     42.380961     42.380961     84.761923
     -4.579580     47.737899     47.737899     95.475799
     -4.569570     51.937942     51.937942    103.875884
     -4.559560     54.250504     54.250504    108.501008
     -4.549550     54.424555     54.424555    108.849110
     -4.539540     52.801534     52.801534    105.603067
     -4.529530     50.202043     50.202043    100.404086
     -4.519520     47.625956     47.625956     95.251912
     -4.509510     45.889172     45.889172     91.778345
     -4.499499     45.345824     45.345824     90.691649
     -4.489489     45.802531     45.802531     91.605062
     -4.479479     46.644029     46.644029     93.288059
     -4.469469     47.099703     47.099703     94.199406
     -4.459459     46.529956     46.529956     93.059911
     -4.449449     44.620439     44.620439     89.240878
     -4.439439     41.430256     41.430256     82.860512
     -4.429429     37.313218     37.313218     74.626437
     -4.419419     32.780248     32.780248     65.560495
     -4.409409     28.374151     28.374151     56.748302
     -4.399399     24.591558     24.591558     49.183117
     -4.389389     21.840875     21.840875     43.681749
     -4.379379     20.403432     20.403432     40.806863
     -4.369369     20.381005     20.381005     40.762011
     -4.359359     21.649395     21.649395     43.298791
     -4.349349     23.860974     23.860974     47.721949
     -4.339339     26.525887     26.525887     53.051774
     -4.329329     29.158523     29.158523     58.317047
     -4.319319     31.433376     31.433376     62.866753
     -4.309309     33.281883     33.281883     66.563767
     -4.299299     34.886186     34.886186     69.772372
     -4.289289     36.569615     36.569615     73.139230
     -4.279279     38.623259     38.623259     77.246518
     -4.269269     41.130297     41.130297     82.260595
     -4.259259     43.854743     43.854743     87.709486
     -4.249249     46.249648     46.249648     92.499296
     -4.239239     47.606423     47.606423     95.212845
     -4.229229     47.310153     47.310153     94.620306
     -4.219219     45.104532     45.104532     90.209064
     -4.209209     41.242844     41.242844     82.485687
     -4.199199     36.439528     36.439528     72.879057
     -4.189189     31.631476     31.631476     63.262953
     -4.179179     27.656808     27.656808     55.313616
     -4.169169     24.999886     24.999886     49.999771
     -4.159159     23.710048     23.710048     47.420096
     -4.149149     23.507237     23.507237     47.014474
     -4.139139     23.998281     23.998281     47.996563
     -4.129129     24.887805     24.887805     49.775609
     -4.119119     26.085872     26.085872     52.171743
     -4.109109     27.670944     27.670944     55.341888
     -4.099099     29.734911     29.734911     59.469822
     -4.089089     32.194287     32.194287     64.388573
     -4.079079     34.676640     34.676640     69.353281
     -4.069069     36.565349     36.565349     73.130699
     -4.059059     37.208577     37.208577     74.417153
     -4.049049     36.203695     36.203695     72.407389
     -4.039039     33.613259     33.613259     67.226519
     -4.029029     29.995084     29.995084     59.990168
     -4.019019     26.227037     26.227037     52.454074
     -4.009009     23.216401     23.216401     46.432803
     -3.998999     21.635360     21.635360     43.270720
     -3.988989     21.790974     21.790974     43.581949
     -3.978979     23.650119     23.650119     47.300238
     -3.968969     26.958882     26.958882     53.917765
     -3.958959     31.369687     31.369687     62.739374
     -3.948949     36.521715     36.521715     73.043429
     -3.938939     42.074646     42.074646     84.149292
     -3.928929     47.727256     47.727256     95.454511
     -3.918919     53.241879     53.241879    106.483758
     -3.908909     58.462034     58.462034    116.924069
     -3.898899     63.290820     63.290820    126.581639
     -3.888889     67.614778     67.614778    135.229556
     -3.878879     71.201312     71.201312    142.402623
     -3.868869     73.633674     73.633674    147.267347
     -3.858859     74.346038     74.346038    148.692077
     -3.848849     72.777123     72.777123    145.554245
     -3.838839     68.596528     68.596528    137.193056
     -3.828829     61.909095     61.909095    123.818189
     -3.818819     53.338221     53.338221    106.676443
     -3.808809     43.935267     43.935267     87.870533
     -3.798799     34.936687     34.936687     69.873375
     -3.788789     27.454988     27.454988     54.909975
     -3.778779     22.211978     22.211978     44.423955
     -3.768769     19.397231     19.397231     38.794462
     -3.758759     18.681284     18.681284     37.362568
     -3.748749     19.361336     19.361336     38.722671
     -3.738739     20.585965     20.585965     41.171929
     -3.728729     21.596541     21.596541     43.193083
     -3.718719     21.928343     21.928343     43.856686
     -3.708709     21.526219     21.526219     43.052438
     -3.698699     20.745883     20.745883     41.491766
     -3.688689     20.234262     20.234262     40.468525
     -3.678679     20.711990     20.711990     41.423980
     -3.668669     22.714160     22.714160     45.428320
     -3.658659     26.370858     26.370858     52.741716
     -3.648649     31.310365     31.310365     62.620730
     -3.638639     36.733194     36.733194     73.466388
     -3.628629     41.639411     41.639411     83.278822
     -3.618619     45.123623     45.123623     90.247246
     -3.608609     46.621173     46.621173     93.242347
     -3.598599     46.017462     46.017462     92.034923
     -3.588589     43.603432     43.603432     87.206863
     -3.578579     39.928033     39.928033     79.856066
     -3.568569     35.623204     35.623204     71.246407
     -3.558559     31.256372     31.256372     62.512745
     -3.548549     27.230818     27.230818     54.461636
     -3.538539     23.736390     23.736390     47.472780
     -3.528529     20.754657     20.754657     41.509313
     -3.518519     18.122415     18.122415     36.244831
     -3.508509     15.640026     15.640026     31.280052
     -3.498498     13.185383     13.185383     26.370765
     -3.488488     10.784883     10.784883     21.569767
     -3.478478      8.612248      8.612248     17.224496
     -3.468468      6.922085      6.922085     13.844171
     -3.458458      5.952551      5.952551     11.905102
     -3.448448      5.835745      5.835745     11.671489
     -3.438438      6.542021      6.542021     13.084041
     -3.428428      7.870808      7.870808     15.741616
     -3.418418      9.493240      9.493240     18.986480
     -3.408408     11.044369     11.044369     22.088738
     -3.398398     12.246632     12.246632     24.493264
     -3.388388     13.025271     13.025271     26.050543
     -3.378378     13.567114     13.567114     27.134228
     -3.368368     14.290053     14.290053     28.580107
     -3.358358     15.726984     15.726984     31.453969
     -3.348348     18.362265     18.362265     36.724531
     -3.338338     22.470018     22.470018     44.940035
     -3.328328     27.991192     27.991192     55.982384
     -3.318318     34.470126     34.470126     68.940252
     -3.308308     41.069295     41.069295     82.138591
     -3.298298     46.687037     46.687037     93.374074
     -3.288288     50.189974     50.189974    100.379948
     -3.278278     50.722403     50.722403    101.444807
     -3.268268     47.990838     47.990838     95.981677
     -3.258258     42.396321     42.396321     84.792642
     -3.248248     34.937928     34.937928     69.875857
     -3.238238     26.918728     26.918728     53.837456
     -3.228228     19.581225     19.581225     39.162451
     -3.218218     13.819583     13.819583     27.639165
     -3.208208     10.054228     10.054228     20.108457
     -3.198198      8.262879      8.262879     16.525759
     -3.188188      8.103245      8.103245     16.206491
     -3.178178      9.061628      9.061628     18.123257
     -3.168168     10.594994     10.594994     21.189989
     -3.158158     12.260124     12.260124     24.520247
     -3.148148     13.819977     13.819977     27.639955
     -3.138138     15.296740     15.296740     30.593480
     -3.128128     16.934198     16.934198     33.868396
     -3.118118     19.059499     19.059499     38.118998
     -3.108108     21.886512     21.886512     43.773025
     -3.098098     25.346721     25.346721     50.693442
     -3.088088     29.035507     29.035507     58.071014
     -3.078078     32.312905     32.312905     64.625810
     -3.068068     34.521146     34.521146     69.042293
     -3.058058     35.218967     35.218967     70.437933
     -3.048048     34.322052     34.322052     68.644104
     -3.038038     32.089167     32.089167     64.178335
     -3.028028     28.977092     28.977092     57.954184
     -3.018018     25.454749     25.454749     50.909497
     -3.008008     21.877460     21.877460     43.754920
     -2.997998     18.472782     18.472782     36.945564
     -2.987988     15.416219     15.416219     30.832437
     -2.977978     12.926515     12.926515     25.853030
     -2.967968     11.311287     11.311287     22.622573
     -2.957958     10.932507     10.932507     21.865014
     -2.947948     12.105982     12.105982     24.211965
     -2.937938     14.975473     14.975473     29.950946
     -2.927928     19.407920     19.407920     38.815840
     -2.917918     24.950271     24.950271     49.900541
     -2.907908     30.875596     30.875596     61.751192
     -2.897898     36.323265     36.323265     72.646530
     -2.887888     40.503735     40.503735     81.007469
     -2.877878     42.904001     42.904001     85.808001
     -2.867868     43.415664     43.415664     86.831327
     -2.857858     42.329269     42.329269     84.658539
     -2.847848     40.192431     40.192431     80.384863
     -2.837838     37.590647     37.590647     75.181293
     -2.827828     34.946307     34.946307     69.892614
     -2.817818     32.421833     32.421833     64.843665
     -2.807808     29.960031     29.960031     59.920062
     -2.797798     27.425560     27.425560     54.851121
     -2.787788     24.762473     24.762473     49.524946
     -2.777778     22.080503     22.080503     44.161006
     -2.767768     19.627959     19.627959     39.255918
     -2.757758     17.676157     17.676157     35.352314
     -2.747748     16.390915     16.390915     32.781831
     -2.737738     15.771171     15.771171     31.542342
     -2.727728     15.689985     15.689985     31.379969
     -2.717718     16.005863     16.005863     32.011726
     -2.707708     16.665008     16.665008     33.330016
     -2.697698     17.720224     17.720224     35.440449
     -2.687688     19.249486     19.249486     38.498971
     -2.677678     21.230097     21.230097     42.460193
     -2.667668     23.462323     23.462323     46.924645
     -2.657658     25.609168     25.609168     51.218335
     -2.647648     27.341274     27.341274     54.682548
     -2.637638     28.500438     28.500438     57.000875
     -2.627628     29.176825     29.176825     58.353650
     -2.617618     29.649231     29.649231     59.298461
     -2.607608     30.226683     30.226683     60.453366
     -2.597598     31.089077     31.089077     62.178154
     -2.587588     32.213307     32.213307     64.426614
     -2.577578     33.403935     33.403935     66.807869
     -2.567568     34.380441     34.380441     68.760883
     -2.557558     34.856907     34.856907     69.713814
     -2.547548     34.587527     34.587527     69.175054
     -2.537538     33.399396     33.399396     66.798791
     -2.527528     31.245172     31.245172     62.490345
     -2.517518     28.274168     28.274168     56.548335
     -2.507508     24.876340     24.876340     49.752681
     -2.497497     21.643983     21.643983     43.287967
     -2.487487     19.233753     19.233753     38.467507
     -2.477477     18.170960     18.170960     36.341919
     -2.467467     18.677916     18.677916     37.355833
     -2.457457     20.604420     20.604420     41.208839
     -2.447447     23.494924     23.494924     46.989848
     -2.437437     26.766503     26.766503     53.533007
     -2.427427     29.921600     29.921600     59.843199
     -2.417417     32.701923     32.701923     65.403845
     -2.407407     35.114546     35.114546     70.229092
     -2.397397     37.320077     37.320077     74.640154
     -2.387387     39.439853     39.439853     78.879706
     -2.377377     41.381804     41.381804     82.763607
     -2.367367     42.780210     42.780210     85.560420
     -2.357357     43.092580     43.092580     86.185159
     -2.347347     41.820038     41.820038     83.640076
     -2.337337     38.753204     38.753204     77.506408
     -2.327327     34.127882     34.127882     68.255765
     -2.317317     28.616122     28.616122     57.232245
     -2.307307     23.156848     23.156848     46.313696
     -2.297297     18.702004     18.702004     37.404008
     -2.287287     15.980369     15.980369     31.960738
     -2.277277     15.355011     15.355011     30.710022
     -2.267267     16.797186     16.797186     33.594372
     -2.257257     19.953632     19.953632     39.907265
     -2.247247     24.263857     24.263857     48.527714
     -2.237237     29.085801     29.085801     58.171602
     -2.227227     33.799799     33.799799     67.599599
     -2.217217     37.874513     37.874513     75.749025
     -2.207207     40.894025     40.894025     81.788051
     -2.197197     42.561606     42.561606     85.123212
     -2.187187     42.705298     42.705298     85.410596
     -2.177177     41.303461     41.303461     82.606922
     -2.167167     38.523164     38.523164     77.046328
     -2.157157     34.736061     34.736061     69.472121
     -2.147147     30.469913     30.469913     60.939826
     -2.137137     26.283540     26.283540     52.567081
     -2.127127     22.604775     22.604775     45.209550
     -2.117117     19.607910     19.607910     39.215821
     -2.107107     17.196936     17.196936     34.393871
     -2.097097     15.104706     15.104706     30.209413
     -2.087087     13.052912     13.052912     26.105825
     -2.077077     10.887651     10.887651     21.775301
     -2.067067      8.628491      8.628491     17.256981
     -2.057057      6.424880      6.424880     12.849760
     -2.047047      4.462978      4.462978      8.925956
     -2.037037      2.880351      2.880351      5.760702
     -2.027027      1.725673      1.725673      3.451346
     -2.017017      0.967343      0.967343      1.934685
     -2.007007      0.531646      0.531646      1.063293
     -1.996997      0.346788      0.346788      0.693576
     -1.986987      0.377850      0.377850      0.755700
     -1.976977      0.648123      0.648123      1.296247
     -1.966967      1.246408      1.246408      2.492816
     -1.956957      2.317525      2.317525      4.635049
     -1.946947      4.029995      4.029995      8.059990
     -1.936937      6.517692      6.517692     13.035384
     -1.926927      9.804534      9.804534     19.609067
     -1.916917     13.738350     13.738350     27.476700
     -1.906907     17.969665     17.969665     35.939330
     -1.896897     22.001011     22.001011     44.002021
     -1.886887     25.301744     25.301744     50.603488
     -1.876877     27.448159     27.448159     54.896319
     -1.866867     28.232933     28.232933     56.465866
     -1.856857     27.704002     27.704002     55.408004
     -1.846847     26.129320     26.129320     52.258640
     -1.836837     23.913862     23.913862     47.827724
     -1.826827     21.500796     21.500796     43.001592
     -1.816817     19.276151     19.276151     38.552302
     -1.806807     17.486795     17.486795     34.973590
     -1.796797     16.186610     16.186610     32.373219
     -1.786787     15.234446     15.234446     30.468892
     -1.776777     14.359162     14.359162     28.718324
     -1.766767     13.276604     13.276604     26.553207
     -1.756757     11.810430     11.810430     23.620860
     -1.746747      9.961004      9.961004     19.922008
     -1.736737      7.894010      7.894010     15.788019
     -1.726727      5.864979      5.864979     11.729957
     -1.716717      4.126895      4.126895      8.253790
     -1.706707      2.866903      2.866903      5.733806
     -1.696697      2.190536      2.190536      4.381072
     -1.686687      2.139540      2.139540      4.279079
     -1.676677      2.712673      2.712673      5.425346
     -1.666667      3.864877      3.864877      7.729755
     -1.656657      5.482364      5.482364     10.964728
     -1.646647      7.355201      7.355201     14.710403
     -1.636637      9.180083      9.180083     18.360166
     -1.626627     10.615581     10.615581     21.231161
