# EIG2DOS: Utility for SIESTA to obtain the electronic density of states
#  E. Artacho, Apr 1999, A. Garcia, Apr 2012
#  Nick R. Papior, Feb 2017
# ------------------------------------------
# Eigenvalues calculated from a non-polarized calculation
# Eigenvalues read from siesta.EIG
# Kpoint weights read from siesta.KP
# Using smearing parameter:   0.0500
# Using 1000 points in the energy range
# Selected bands: 1 to: 2981
# Emin, Emax in file for selected band(s):    -27.0599759    218.3308550
# Nbands, Nspin, Nk   =   2981     1     1
# E_F                 =    -4.2763 eV --> (shifted to ZERO)
# Broadening          =     0.0500 eV
#
#        E            N(up)  (=)   N(down)         Ntot
     -5.000000     38.372061     38.372061     76.744121
     -4.989990     40.521791     40.521791     81.043581
     -4.979980     42.233676     42.233676     84.467352
     -4.969970     43.121991     43.121991     86.243982
     -4.959960     42.925819     42.925819     85.851638
     -4.949950     41.588696     41.588696     83.177392
     -4.939940     39.280857     39.280857     78.561714
     -4.929930     36.377472     36.377472     72.754944
     -4.919920     33.415528     33.415528     66.831057
     -4.909910     31.040344     31.040344     62.080688
     -4.899900     29.929916     29.929916     59.859832
     -4.889890     30.671857     30.671857     61.343713
     -4.879880     33.584496     33.584496     67.168992
     -4.869870     38.523603     38.523603     77.047207
     -4.859860     44.769971     44.769971     89.539942
     -4.849850     51.101811     51.101811    102.203621
     -4.839840     56.089137     56.089137    112.178274
     -4.829830     58.528367     58.528367    117.056733
     -4.819820     57.837492     57.837492    115.674984
     -4.809810     54.228966     54.228966    108.457933
     -4.799800     48.583104     48.583104     97.166207
     -4.789790     42.096585     42.096585     84.193169
     -4.779780     35.882331     35.882331     71.764661
     -4.769770     30.690620     30.690620     61.381240
     -4.759760     26.826829     26.826829     53.653658
     -4.749750     24.232280     24.232280     48.464560
     -4.739740     22.636954     22.636954     45.273907
     -4.729730     21.700467     21.700467     43.400934
     -4.719720     21.100371     21.100371     42.200742
     -4.709710     20.567664     20.567664     41.135329
     -4.699700     19.891992     19.891992     39.783985
     -4.689690     18.924799     18.924799     37.849598
     -4.679680     17.601676     17.601676     35.203352
     -4.669670     15.987127     15.987127     31.974253
     -4.659660     14.322150     14.322150     28.644301
     -4.649650     13.040180     13.040180     26.080361
     -4.639640     12.720124     12.720124     25.440249
     -4.629630     13.965278     13.965278     27.930556
     -4.619620     17.224456     17.224456     34.448913
     -4.609610     22.598923     22.598923     45.197845
     -4.599600     29.700758     29.700758     59.401515
     -4.589590     37.635693     37.635693     75.271386
     -4.579580     45.160178     45.160178     90.320356
     -4.569570     51.000660     51.000660    102.001320
     -4.559560     54.241884     54.241884    108.483768
     -4.549550     54.635612     54.635612    109.271224
     -4.539540     52.693940     52.693940    105.387879
     -4.529530     49.516939     49.516939     99.033879
     -4.519520     46.420373     46.420373     92.840746
     -4.509510     44.512896     44.512896     89.025792
     -4.499499     44.381219     44.381219     88.762437
     -4.489489     45.978776     45.978776     91.957551
     -4.479479     48.719476     48.719476     97.438952
     -4.469469     51.703767     51.703767    103.407535
     -4.459459     53.979894     53.979894    107.959788
     -4.449449     54.765747     54.765747    109.531493
     -4.439439     53.598172     53.598172    107.196344
     -4.429429     50.407524     50.407524    100.815047
     -4.419419     45.523769     45.523769     91.047539
     -4.409409     39.615611     39.615611     79.231222
     -4.399399     33.562853     33.562853     67.125706
     -4.389389     28.274575     28.274575     56.549151
     -4.379379     24.487865     24.487865     48.975729
     -4.369369     22.600587     22.600587     45.201175
     -4.359359     22.592916     22.592916     45.185832
     -4.349349     24.069281     24.069281     48.138561
     -4.339339     26.410648     26.410648     52.821295
     -4.329329     28.983696     28.983696     57.967393
     -4.319319     31.330347     31.330347     62.660694
     -4.309309     33.271556     33.271556     66.543112
     -4.299299     34.898117     34.898117     69.796234
     -4.289289     36.466329     36.466329     72.932657
     -4.279279     38.244813     38.244813     76.489626
     -4.269269     40.363592     40.363592     80.727184
     -4.259259     42.708932     42.708932     85.417864
     -4.249249     44.899792     44.899792     89.799584
     -4.239239     46.370717     46.370717     92.741435
     -4.229229     46.556408     46.556408     93.112817
     -4.219219     45.122279     45.122279     90.244558
     -4.209209     42.140255     42.140255     84.280509
     -4.199199     38.111808     38.111808     76.223616
     -4.189189     33.807793     33.807793     67.615586
     -4.179179     29.993428     29.993428     59.986856
     -4.169169     27.172407     27.172407     54.344814
     -4.159159     25.471524     25.471524     50.943049
     -4.149149     24.706299     24.706299     49.412599
     -4.139139     24.572318     24.572318     49.144636
     -4.129129     24.850702     24.850702     49.701403
     -4.119119     25.520483     25.520483     51.040967
     -4.109109     26.723409     26.723409     53.446818
     -4.099099     28.600849     28.600849     57.201699
     -4.089089     31.089964     31.089964     62.179929
     -4.079079     33.798681     33.798681     67.597363
     -4.069069     36.052666     36.052666     72.105332
     -4.059059     37.122035     37.122035     74.244070
     -4.049049     36.530122     36.530122     73.060245
     -4.039039     34.286403     34.286403     68.572806
     -4.029029     30.917322     30.917322     61.834643
     -4.019019     27.279181     27.279181     54.558362
     -4.009009     24.256523     24.256523     48.513046
     -3.998999     22.500310     22.500310     45.000621
     -3.988989     22.315146     22.315146     44.630292
     -3.978979     23.703142     23.703142     47.406283
     -3.968969     26.486926     26.486926     52.973853
     -3.958959     30.417407     30.417407     60.834814
     -3.948949     35.220097     35.220097     70.440194
     -3.938939     40.598721     40.598721     81.197441
     -3.928929     46.243989     46.243989     92.487977
     -3.918919     51.872479     51.872479    103.744958
     -3.908909     57.273159     57.273159    114.546318
     -3.898899     62.312636     62.312636    124.625273
     -3.888889     66.869919     66.869919    133.739839
     -3.878879     70.724491     70.724491    141.448982
     -3.868869     73.468892     73.468892    146.937784
     -3.858859     74.522988     74.522988    149.045975
     -3.848849     73.282108     73.282108    146.564215
     -3.838839     69.357415     69.357415    138.714830
     -3.828829     62.805586     62.805586    125.611171
     -3.818819     54.233572     54.233572    108.467144
     -3.808809     44.713609     44.713609     89.427218
     -3.798799     35.528747     35.528747     71.057495
     -3.788789     27.843595     27.843595     55.687190
     -3.778779     22.420306     22.420306     44.840611
     -3.768769     19.469752     19.469752     38.939504
     -3.758759     18.667211     18.667211     37.334421
     -3.748749     19.305269     19.305269     38.610538
     -3.738739     20.525053     20.525053     41.050105
     -3.728729     21.560666     21.560666     43.121332
     -3.718719     21.940084     21.940084     43.880169
     -3.708709     21.599142     21.599142     43.198285
     -3.698699     20.881442     20.881442     41.762883
     -3.688689     20.418672     20.418672     40.837343
     -3.678679     20.914913     20.914913     41.829827
     -3.668669     22.891292     22.891292     45.782584
     -3.658659     26.472027     26.472027     52.944053
     -3.648649     31.292983     31.292983     62.585965
     -3.638639     36.577779     36.577779     73.155558
     -3.628629     41.361085     41.361085     82.722170
     -3.618619     44.773368     44.773368     89.546736
     -3.608609     46.274271     46.274271     92.548542
     -3.598599     45.752431     45.752431     91.504861
     -3.588589     43.479458     43.479458     86.958916
     -3.578579     39.969462     39.969462     79.938923
     -3.568569     35.815963     35.815963     71.631926
     -3.558559     31.555741     31.555741     63.111482
     -3.548549     27.575931     27.575931     55.151863
     -3.538539     24.065975     24.065975     48.131950
     -3.528529     21.020004     21.020004     42.040009
     -3.518519     18.295718     18.295718     36.591435
     -3.508509     15.717594     15.717594     31.435189
     -3.498498     13.185928     13.185928     26.371857
     -3.488488     10.743592     10.743592     21.487183
     -3.478478      8.572031      8.572031     17.144063
     -3.468468      6.923761      6.923761     13.847521
     -3.458458      6.025437      6.025437     12.050873
     -3.448448      5.989767      5.989767     11.979533
     -3.438438      6.762524      6.762524     13.525048
     -3.428428      8.117858      8.117858     16.235717
     -3.418418      9.706976      9.706976     19.413951
     -3.408408     11.155738     11.155738     22.311475
     -3.398398     12.188900     12.188900     24.377799
     -3.388388     12.738563     12.738563     25.477127
     -3.378378     12.988865     12.988865     25.977730
     -3.368368     13.329940     13.329940     26.659879
     -3.358358     14.234057     14.234057     28.468113
     -3.348348     16.101000     16.101000     32.202001
     -3.338338     19.126311     19.126311     38.252621
     -3.328328     23.224669     23.224669     46.449339
     -3.318318     28.013129     28.013129     56.026258
     -3.308308     32.848310     32.848310     65.696619
     -3.298298     36.919985     36.919985     73.839970
     -3.288288     39.408171     39.408171     78.816341
     -3.278278     39.688884     39.688884     79.377769
     -3.268268     37.530456     37.530456     75.060912
     -3.258258     33.194239     33.194239     66.388477
     -3.248248     27.377046     27.377046     54.754093
     -3.238238     21.005165     21.005165     42.010331
     -3.228228     14.965935     14.965935     29.931870
     -3.218218      9.890256      9.890256     19.780512
     -3.208208      6.062334      6.062334     12.124668
     -3.198198      3.462063      3.462063      6.924126
     -3.188188      1.888541      1.888541      3.777082
     -3.178178      1.097963      1.097963      2.195926
     -3.168168      0.909631      0.909631      1.819262
     -3.158158      1.264610      1.264610      2.529219
     -3.148148      2.240925      2.240925      4.481851
     -3.138138      4.031575      4.031575      8.063149
     -3.128128      6.885617      6.885617     13.771234
     -3.118118     11.011593     11.011593     22.023186
     -3.108108     16.454555     16.454555     32.909111
     -3.098098     22.980517     22.980517     45.961034
     -3.088088     30.021214     30.021214     60.042427
     -3.078078     36.729095     36.729095     73.458190
     -3.068068     42.156592     42.156592     84.313184
     -3.058058     45.514339     45.514339     91.028677
     -3.048048     46.411229     46.411229     92.822457
     -3.038038     44.971306     44.971306     89.942613
     -3.028028     41.772809     41.772809     83.545619
     -3.018018     37.639141     37.639141     75.278283
     -3.008008     33.379987     33.379987     66.759974
     -2.997998     29.593073     29.593073     59.186147
     -2.987988     26.592191     26.592191     53.184383
     -2.977978     24.459564     24.459564     48.919128
     -2.967968     23.169461     23.169461     46.338921
     -2.957958     22.712150     22.712150     45.424300
     -2.947948     23.157806     23.157806     46.315612
     -2.937938     24.628986     24.628986     49.257971
     -2.927928     27.191708     27.191708     54.383415
     -2.917918     30.719122     30.719122     61.438244
     -2.907908     34.807467     34.807467     69.614933
     -2.897898     38.809930     38.809930     77.619860
     -2.887888     41.998314     41.998314     83.996628
     -2.877878     43.792162     43.792162     87.584324
     -2.867868     43.951526     43.951526     87.903052
     -2.857858     42.640750     42.640750     85.281501
     -2.847848     40.332178     40.332178     80.664357
     -2.837838     37.597194     37.597194     75.194387
     -2.827828     34.885273     34.885273     69.770547
     -2.817818     32.392596     32.392596     64.785192
     -2.807808     30.071380     30.071380     60.142761
     -2.797798     27.757319     27.757319     55.514637
     -2.787788     25.334287     25.334287     50.668574
     -2.777778     22.843051     22.843051     45.686103
     -2.767768     20.479205     20.479205     40.958410
     -2.757758     18.492648     18.492648     36.985296
     -2.747748     17.058138     17.058138     34.116276
     -2.737738     16.200434     16.200434     32.400869
     -2.727728     15.819687     15.819687     31.639375
     -2.717718     15.795709     15.795709     31.591418
     -2.707708     16.096008     16.096008     32.192015
     -2.697698     16.808063     16.808063     33.616127
     -2.687688     18.066668     18.066668     36.133336
     -2.677678     19.920792     19.920792     39.841584
     -2.667668     22.231725     22.231725     44.463450
     -2.657658     24.680341     24.680341     49.360683
     -2.647648     26.891820     26.891820     53.783641
     -2.637638     28.606391     28.606391     57.212782
     -2.627628     29.790480     29.790480     59.580959
     -2.617618     30.620258     30.620258     61.240516
     -2.607608     31.353541     31.353541     62.707081
     -2.597598     32.175655     32.175655     64.351309
     -2.587588     33.110339     33.110339     66.220678
     -2.577578     34.028994     34.028994     68.057988
     -2.567568     34.721401     34.721401     69.442802
     -2.557558     34.964908     34.964908     69.929816
     -2.547548     34.560705     34.560705     69.121409
     -2.537538     33.356510     33.356510     66.713020
     -2.527528     31.292577     31.292577     62.585154
     -2.517518     28.475856     28.475856     56.951712
     -2.507508     25.238072     25.238072     50.476143
     -2.497497     22.116369     22.116369     44.232738
     -2.487487     19.730128     19.730128     39.460256
     -2.477477     18.590563     18.590563     37.181125
     -2.467467     18.926118     18.926118     37.852236
     -2.457457     20.606783     20.606783     41.213567
     -2.447447     23.205950     23.205950     46.411900
     -2.437437     26.174769     26.174769     52.349538
     -2.427427     29.052055     29.052055     58.104110
     -2.417417     31.615673     31.615673     63.231345
     -2.407407     33.906739     33.906739     67.813478
     -2.397397     36.115815     36.115815     72.231630
     -2.387387     38.385547     38.385547     76.771095
     -2.377377     40.627482     40.627482     81.254964
     -2.367367     42.450627     42.450627     84.901254
     -2.357357     43.252427     43.252427     86.504854
     -2.347347     42.446600     42.446600     84.893199
     -2.337337     39.731359     39.731359     79.462718
     -2.327327     35.274077     35.274077     70.548155
     -2.317317     29.723958     29.723958     59.447917
     -2.307307     24.046479     24.046479     48.092959
     -2.297297     19.255300     19.255300     38.510600
     -2.287287     16.152850     16.152850     32.305701
     -2.277277     15.166887     15.166887     30.333774
     -2.267267     16.312742     16.312742     32.625484
     -2.257257     19.259006     19.259006     38.518012
     -2.247247     23.450346     23.450346     46.900692
     -2.237237     28.241896     28.241896     56.483792
     -2.227227     33.010939     33.010939     66.021879
     -2.217217     37.225534     37.225534     74.451068
     -2.207207     40.467206     40.467206     80.934411
     -2.197197     42.425479     42.425479     84.850958
     -2.187187     42.895922     42.895922     85.791844
     -2.177177     41.806794     41.806794     83.613588
     -2.167167     39.269586     39.269586     78.539173
     -2.157157     35.613551     35.613551     71.227103
     -2.147147     31.353251     31.353251     62.706502
     -2.137137     27.068510     27.068510     54.137020
     -2.127127     23.233506     23.233506     46.467012
     -2.117117     20.075667     20.075667     40.151334
     -2.107107     17.539493     17.539493     35.078986
     -2.097097     15.374139     15.374139     30.748279
     -2.087087     13.293691     13.293691     26.587382
     -2.077077     11.122730     11.122730     22.245460
     -2.067067      8.858532      8.858532     17.717063
     -2.057057      6.636999      6.636999     13.273998
     -2.047047      4.642052      4.642052      9.284105
     -2.037037      3.016822      3.016822      6.033645
     -2.027027      1.817166      1.817166      3.634333
     -2.017017      1.014481      1.014481      2.028961
     -2.007007      0.529459      0.529459      1.058919
     -1.996997      0.272239      0.272239      0.544478
     -1.986987      0.172890      0.172890      0.345780
     -1.976977      0.198393      0.198393      0.396786
     -1.966967      0.359529      0.359529      0.719058
     -1.956957      0.711248      0.711248      1.422495
     -1.946947      1.345908      1.345908      2.691816
     -1.936937      2.375045      2.375045      4.750090
     -1.926927      3.896333      3.896333      7.792665
     -1.916917      5.949547      5.949547     11.899095
     -1.906907      8.475377      8.475377     16.950755
     -1.896897     11.296695     11.296695     22.593390
     -1.886887     14.137084     14.137084     28.274168
     -1.876877     16.676343     16.676343     33.352685
     -1.866867     18.626031     18.626031     37.252061
     -1.856857     19.800164     19.800164     39.600328
     -1.846847     20.159780     20.159780     40.319560
     -1.836837     19.819316     19.819316     39.638632
     -1.826827     19.010876     19.010876     38.021753
     -1.816817     18.010614     18.010614     36.021227
     -1.806807     17.045019     17.045019     34.090038
     -1.796797     16.211786     16.211786     32.423572
     -1.786787     15.455840     15.455840     30.911680
     -1.776777     14.621938     14.621938     29.243876
     -1.766767     13.564870     13.564870     27.129740
     -1.756757     12.261508     12.261508     24.523015
     -1.746747     10.862848     10.862848     21.725696
     -1.736737      9.655195      9.655195     19.310390
     -1.726727      8.948243      8.948243     17.896486
     -1.716717      8.944768      8.944768     17.889537
     -1.706707      9.653589      9.653589     19.307178
     -1.696697     10.884780     10.884780     21.769560
     -1.686687     12.326891     12.326891     24.653783
     -1.676677     13.667274     13.667274     27.334549
     -1.666667     14.695714     14.695714     29.391429
     -1.656657     15.341005     15.341005     30.682010
     -1.646647     15.629126     15.629126     31.258252
     -1.636637     15.599901     15.599901     31.199801
     -1.626627     15.244932     15.244932     30.489863
