# EIG2DOS: Utility for SIESTA to obtain the electronic density of states
#  E. Artacho, Apr 1999, A. Garcia, Apr 2012
#  Nick R. Papior, Feb 2017
# ------------------------------------------
# Eigenvalues calculated from a non-polarized calculation
# Eigenvalues read from siesta.EIG
# Kpoint weights read from siesta.KP
# Using smearing parameter:   0.0500
# Using 1000 points in the energy range
# Selected bands: 1 to: 2981
# Emin, Emax in file for selected band(s):    -27.0778216    218.3487970
# Nbands, Nspin, Nk   =   2981     1     1
# E_F                 =    -4.2535 eV --> (shifted to ZERO)
# Broadening          =     0.0500 eV
#
#        E            N(up)  (=)   N(down)         Ntot
     -5.000000     35.794908     35.794908     71.589816
     -4.989990     39.207653     39.207653     78.415306
     -4.979980     41.892542     41.892542     83.785083
     -4.969970     43.411878     43.411878     86.823756
     -4.959960     43.516933     43.516933     87.033866
     -4.949950     42.211765     42.211765     84.423531
     -4.939940     39.757817     39.757817     79.515633
     -4.929930     36.631144     36.631144     73.262287
     -4.919920     33.458071     33.458071     66.916141
     -4.909910     30.945205     30.945205     61.890410
     -4.899900     29.794885     29.794885     59.589770
     -4.889890     30.581173     30.581173     61.162345
     -4.879880     33.578189     33.578189     67.156377
     -4.869870     38.582889     38.582889     77.165778
     -4.859860     44.825609     44.825609     89.651217
     -4.849850     51.064825     51.064825    102.129650
     -4.839840     55.892206     55.892206    111.784411
     -4.829830     58.158747     58.158747    116.317494
     -4.819820     57.345407     57.345407    114.690813
     -4.809810     53.708300     53.708300    107.416600
     -4.799800     48.135794     48.135794     96.271588
     -4.789790     41.798596     41.798596     83.597191
     -4.779780     35.764544     35.764544     71.529088
     -4.769770     30.737548     30.737548     61.475096
     -4.759760     26.987837     26.987837     53.975674
     -4.749750     24.438140     24.438140     48.876280
     -4.739740     22.817032     22.817032     45.634065
     -4.729730     21.798160     21.798160     43.596320
     -4.719720     21.084479     21.084479     42.168958
     -4.709710     20.436900     20.436900     40.873801
     -4.699700     19.671318     19.671318     39.342635
     -4.689690     18.655933     18.655933     37.311865
     -4.679680     17.333199     17.333199     34.666397
     -4.669670     15.769345     15.769345     31.538690
     -4.659660     14.208080     14.208080     28.416161
     -4.649650     13.089038     13.089038     26.178076
     -4.639640     12.996540     12.996540     25.993080
     -4.629630     14.527991     14.527991     29.055982
     -4.619620     18.103002     18.103002     36.206003
     -4.609610     23.764827     23.764827     47.529653
     -4.599600     31.047991     31.047991     62.095982
     -4.589590     38.988317     38.988317     77.976634
     -4.579580     46.318355     46.318355     92.636709
     -4.569570     51.819470     51.819470    103.638939
     -4.559560     54.717983     54.717983    109.435966
     -4.549550     54.965807     54.965807    109.931614
     -4.539540     53.274218     53.274218    106.548436
     -4.529530     50.868172     50.868172    101.736344
     -4.519520     49.049192     49.049192     98.098385
     -4.509510     48.736178     48.736178     97.472356
     -4.499499     50.158896     50.158896    100.317792
     -4.489489     52.811654     52.811654    105.623308
     -4.479479     55.668682     55.668682    111.337364
     -4.469469     57.563134     57.563134    115.126269
     -4.459459     57.577487     57.577487    115.154974
     -4.449449     55.304479     55.304479    110.608957
     -4.439439     50.906760     50.906760    101.813521
     -4.429429     44.995039     44.995039     89.990078
     -4.419419     38.412259     38.412259     76.824518
     -4.409409     32.023561     32.023561     64.047122
     -4.399399     26.571521     26.571521     53.143042
     -4.389389     22.598831     22.598831     45.197662
     -4.379379     20.407445     20.407445     40.814890
     -4.369369     20.031290     20.031290     40.062579
     -4.359359     21.231223     21.231223     42.462446
     -4.349349     23.541143     23.541143     47.082285
     -4.339339     26.381010     26.381010     52.762020
     -4.329329     29.214116     29.214116     58.428231
     -4.319319     31.692103     31.692103     63.384207
     -4.309309     33.728559     33.728559     67.457118
     -4.299299     35.472709     35.472709     70.945419
     -4.289289     37.197588     37.197588     74.395177
     -4.279279     39.146693     39.146693     78.293386
     -4.269269     41.390683     41.390683     82.781365
     -4.259259     43.739844     43.739844     87.479688
     -4.249249     45.748452     45.748452     91.496903
     -4.239239     46.829481     46.829481     93.658962
     -4.229229     46.461064     46.461064     92.922127
     -4.219219     44.414375     44.414375     88.828750
     -4.209209     40.897828     40.897828     81.795656
     -4.199199     36.531791     36.531791     73.063581
     -4.189189     32.146740     32.146740     64.293480
     -4.179179     28.493365     28.493365     56.986730
     -4.169169     26.003201     26.003201     52.006403
     -4.159159     24.709166     24.709166     49.418332
     -4.149149     24.347163     24.347163     48.694325
     -4.139139     24.568238     24.568238     49.136476
     -4.129129     25.144270     25.144270     50.288541
     -4.119119     26.063816     26.063816     52.127633
     -4.109109     27.473545     27.473545     54.947089
     -4.099099     29.497441     29.497441     58.994881
     -4.089089     32.031689     32.031689     64.063378
     -4.079079     34.638078     34.638078     69.276155
     -4.069069     36.620942     36.620942     73.241884
     -4.059059     37.278202     37.278202     74.556405
     -4.049049     36.212511     36.212511     72.425022
     -4.039039     33.540563     33.540563     67.081127
     -4.029029     29.886185     29.886185     59.772370
     -4.019019     26.161407     26.161407     52.322815
     -4.009009     23.253686     23.253686     46.507372
     -3.998999     21.774375     21.774375     43.548751
     -3.988989     21.966839     21.966839     43.933678
     -3.978979     23.769161     23.769161     47.538322
     -3.968969     26.948032     26.948032     53.896064
     -3.958959     31.211426     31.211426     62.422852
     -3.948949     36.258601     36.258601     72.517203
     -3.938939     41.787634     41.787634     83.575268
     -3.928929     47.504905     47.504905     95.009810
     -3.918919     53.156469     53.156469    106.312938
     -3.908909     58.557824     58.557824    117.115648
     -3.898899     63.579534     63.579534    127.159068
     -3.888889     68.071280     68.071280    136.142560
     -3.878879     71.758325     71.758325    143.516650
     -3.868869     74.182135     74.182135    148.364269
     -3.858859     74.750053     74.750053    149.500106
     -3.848849     72.906476     72.906476    145.812952
     -3.838839     68.368415     68.368415    136.736830
     -3.828829     61.321811     61.321811    122.643622
     -3.818819     52.479838     52.479838    104.959677
     -3.808809     42.960760     42.960760     85.921520
     -3.798799     34.021664     34.021664     68.043328
     -3.788789     26.744329     26.744329     53.488657
     -3.778779     21.782319     21.782319     43.564639
     -3.768769     19.244513     19.244513     38.489027
     -3.758759     18.734073     18.734073     37.468145
     -3.748749     19.512423     19.512423     39.024847
     -3.738739     20.730937     20.730937     41.461873
     -3.728729     21.667980     21.667980     43.335961
     -3.718719     21.916678     21.916678     43.833356
     -3.708709     21.481794     21.481794     42.963587
     -3.698699     20.761133     20.761133     41.522267
     -3.688689     20.409891     20.409891     40.819781
     -3.678679     21.116330     21.116330     42.232660
     -3.668669     23.349278     23.349278     46.698556
     -3.658659     27.159523     27.159523     54.319046
     -3.648649     32.112258     32.112258     64.224515
     -3.638639     37.386910     37.386910     74.773821
     -3.628629     42.014102     42.014102     84.028205
     -3.618619     45.158380     45.158380     90.316760
     -3.608609     46.336205     46.336205     92.672410
     -3.598599     45.495813     45.495813     90.991627
     -3.588589     42.956018     42.956018     85.912036
     -3.578579     39.259457     39.259457     78.518915
     -3.568569     35.009969     35.009969     70.019938
     -3.558559     30.739128     30.739128     61.478257
     -3.548549     26.816118     26.816118     53.632237
     -3.538539     23.403681     23.403681     46.807363
     -3.528529     20.467298     20.467298     40.934595
     -3.518519     17.842472     17.842472     35.684945
     -3.508509     15.344127     15.344127     30.688253
     -3.498498     12.876156     12.876156     25.752313
     -3.488488     10.492967     10.492967     20.985934
     -3.478478      8.387694      8.387694     16.775389
     -3.468468      6.818364      6.818364     13.636727
     -3.458458      6.008287      6.008287     12.016574
     -3.448448      6.058936      6.058936     12.117872
     -3.438438      6.900542      6.900542     13.801084
     -3.428428      8.292698      8.292698     16.585395
     -3.418418      9.879114      9.879114     19.758227
     -3.408408     11.290286     11.290286     22.580571
     -3.398398     12.269299     12.269299     24.538597
     -3.388388     12.776576     12.776576     25.553151
     -3.378378     13.026311     13.026311     26.052621
     -3.368368     13.430826     13.430826     26.861652
     -3.358358     14.469402     14.469402     28.938804
     -3.348348     16.530298     16.530298     33.060597
     -3.338338     19.778810     19.778810     39.557621
     -3.328328     24.082628     24.082628     48.165256
     -3.318318     29.000449     29.000449     58.000898
     -3.308308     33.831106     33.831106     67.662212
     -3.298298     37.726468     37.726468     75.452936
     -3.288288     39.869358     39.869358     79.738716
     -3.278278     39.689779     39.689779     79.379559
     -3.268268     37.050960     37.050960     74.101920
     -3.258258     32.319391     32.319391     64.638783
     -3.248248     26.269686     26.269686     52.539372
     -3.238238     19.853156     19.853156     39.706312
     -3.228228     13.928221     13.928221     27.856443
     -3.218218      9.063995      9.063995     18.127990
     -3.208208      5.480306      5.480306     10.960613
     -3.198198      3.115429      3.115429      6.230859
     -3.188188      1.762959      1.762959      3.525919
     -3.178178      1.212159      1.212159      2.424319
     -3.168168      1.349367      1.349367      2.698734
     -3.158158      2.205442      2.205442      4.410884
     -3.148148      3.948224      3.948224      7.896448
     -3.138138      6.820726      6.820726     13.641451
     -3.128128     11.028704     11.028704     22.057408
     -3.118118     16.597202     16.597202     33.194403
     -3.108108     23.242455     23.242455     46.484910
     -3.098098     30.324963     30.324963     60.649926
     -3.088088     36.937770     36.937770     73.875539
     -3.078078     42.131775     42.131775     84.263550
     -3.068068     45.206218     45.206218     90.412436
     -3.058058     45.940083     45.940083     91.880165
     -3.048048     44.649077     44.649077     89.298154
     -3.038038     42.030031     42.030031     84.060062
     -3.028028     38.862508     38.862508     77.725017
     -3.018018     35.713741     35.713741     71.427481
     -3.008008     32.790078     32.790078     65.580156
     -2.997998     29.995844     29.995844     59.991688
     -2.987988     27.147693     27.147693     54.295387
     -2.977978     24.215480     24.215480     48.430960
     -2.967968     21.459487     21.459487     42.918973
     -2.957958     19.399829     19.399829     38.799658
     -2.947948     18.641052     18.641052     37.282104
     -2.937938     19.635806     19.635806     39.271613
     -2.927928     22.485145     22.485145     44.970289
     -2.917918     26.848456     26.848456     53.696911
     -2.907908     31.994076     31.994076     63.988152
     -2.897898     36.977364     36.977364     73.954729
     -2.887888     40.893338     40.893338     81.786676
     -2.877878     43.122805     43.122805     86.245609
     -2.867868     43.486012     43.486012     86.972024
     -2.857858     42.245971     42.245971     84.491941
     -2.847848     39.960795     39.960795     79.921590
     -2.837838     37.248205     37.248205     74.496410
     -2.827828     34.564166     34.564166     69.128331
     -2.817818     32.088963     32.088963     64.177927
     -2.807808     29.759378     29.759378     59.518755
     -2.797798     27.412287     27.412287     54.824574
     -2.787788     24.951742     24.951742     49.903484
     -2.777778     22.446927     22.446927     44.893855
     -2.767768     20.114277     20.114277     40.228553
     -2.757758     18.206744     18.206744     36.413489
     -2.747748     16.886470     16.886470     33.772941
     -2.737738     16.162508     16.162508     32.325016
     -2.727728     15.929660     15.929660     31.859319
     -2.717718     16.075960     16.075960     32.151920
     -2.707708     16.579120     16.579120     33.158239
     -2.697698     17.518864     17.518864     35.037727
     -2.687688     18.990639     18.990639     37.981279
     -2.677678     20.978638     20.978638     41.957275
     -2.667668     23.281742     23.281742     46.563485
     -2.657658     25.556608     25.556608     51.113217
     -2.647648     27.463970     27.463970     54.927940
     -2.637638     28.830639     28.830639     57.661277
     -2.627628     29.723943     29.723943     59.447886
     -2.617618     30.391304     30.391304     60.782609
     -2.607608     31.106008     31.106008     62.212016
     -2.597598     32.016747     32.016747     64.033494
     -2.587588     33.083784     33.083784     66.167567
     -2.577578     34.115551     34.115551     68.231102
     -2.567568     34.854559     34.854559     69.709118
     -2.557558     35.049936     35.049936     70.099871
     -2.547548     34.495007     34.495007     68.990014
     -2.537538     33.055478     33.055478     66.110955
     -2.527528     30.720447     30.720447     61.440895
     -2.517518     27.670578     27.670578     55.341156
     -2.507508     24.314569     24.314569     48.629138
     -2.497497     21.240414     21.240414     42.480827
     -2.487487     19.070556     19.070556     38.141111
     -2.477477     18.269620     18.269620     36.539241
     -2.467467     18.988439     18.988439     37.976877
     -2.457457     21.017478     21.017478     42.034956
     -2.447447     23.874546     23.874546     47.749091
     -2.437437     26.991537     26.991537     53.983074
     -2.427427     29.920526     29.920526     59.841052
     -2.417417     32.469443     32.469443     64.938885
     -2.407407     34.706997     34.706997     69.413993
     -2.397397     36.834344     36.834344     73.668689
     -2.387387     38.983401     38.983401     77.966801
     -2.377377     41.040977     41.040977     82.081953
     -2.367367     42.593912     42.593912     85.187824
     -2.357357     43.039646     43.039646     86.079291
     -2.347347     41.827377     41.827377     83.654755
     -2.337337     38.724402     38.724402     77.448804
     -2.327327     33.980966     33.980966     67.961932
     -2.317317     28.312809     28.312809     56.625618
     -2.307307     22.710108     22.710108     45.420216
     -2.297297     18.161769     18.161769     36.323539
     -2.287287     15.409192     15.409192     30.818384
     -2.277277     14.808227     14.808227     29.616455
     -2.267267     16.315430     16.315430     32.630860
     -2.257257     19.565944     19.565944     39.131889
     -2.247247     23.994084     23.994084     47.988169
     -2.237237     28.955549     28.955549     57.911098
     -2.227227     33.825368     33.825368     67.650736
     -2.217217     38.059453     38.059453     76.118906
     -2.207207     41.221416     41.221416     82.442831
     -2.197197     42.990740     42.990740     85.981480
     -2.187187     43.176320     43.176320     86.352641
     -2.177177     41.750335     41.750335     83.500670
     -2.167167     38.890929     38.890929     77.781858
     -2.157157     34.994944     34.994944     69.989887
     -2.147147     30.619348     30.619348     61.238695
     -2.137137     26.344207     26.344207     52.688415
     -2.127127     22.603540     22.603540     45.207080
     -2.117117     19.564383     19.564383     39.128766
     -2.107107     17.118551     17.118551     34.237102
     -2.097097     14.991177     14.991177     29.982354
     -2.087087     12.905081     12.905081     25.810161
     -2.077077     10.714018     10.714018     21.428035
     -2.067067      8.445560      8.445560     16.891119
     -2.057057      6.252100      6.252100     12.504200
     -2.047047      4.316106      4.316106      8.632212
     -2.037037      2.766883      2.766883      5.533765
     -2.027027      1.643518      1.643518      3.287035
     -2.017017      0.905142      0.905142      1.810283
     -2.007007      0.467530      0.467530      0.935060
     -1.996997      0.242230      0.242230      0.484459
     -1.986987      0.164441      0.164441      0.328881
     -1.976977      0.207683      0.207683      0.415365
     -1.966967      0.389297      0.389297      0.778595
     -1.956957      0.769953      0.769953      1.539907
     -1.946947      1.445805      1.445805      2.891609
     -1.936937      2.528650      2.528650      5.057300
     -1.926927      4.111282      4.111282      8.222564
     -1.916917      6.223042      6.223042     12.446085
     -1.906907      8.790547      8.790547     17.581094
     -1.896897     11.623240     11.623240     23.246480
     -1.886887     14.437044     14.437044     28.874088
     -1.876877     16.913460     16.913460     33.826920
     -1.866867     18.775522     18.775522     37.551045
     -1.856857     19.855795     19.855795     39.711589
     -1.846847     20.136852     20.136852     40.273703
     -1.836837     19.754305     19.754305     39.508610
     -1.826827     18.960185     18.960185     37.920369
     -1.816817     18.052057     18.052057     36.104114
     -1.806807     17.285718     17.285718     34.571436
     -1.796797     16.803217     16.803217     33.606435
     -1.786787     16.609119     16.609119     33.218237
     -1.776777     16.605770     16.605770     33.211540
     -1.766767     16.662682     16.662682     33.325364
     -1.756757     16.673396     16.673396     33.346792
     -1.746747     16.566566     16.566566     33.133133
     -1.736737     16.278458     16.278458     32.556916
     -1.726727     15.728106     15.728106     31.456211
     -1.716717     14.834111     14.834111     29.668222
     -1.706707     13.574592     13.574592     27.149183
     -1.696697     12.050480     12.050480     24.100960
     -1.686687     10.500775     10.500775     21.001549
     -1.676677      9.244471      9.244471     18.488941
     -1.666667      8.567298      8.567298     17.134597
     -1.656657      8.603163      8.603163     17.206326
     -1.646647      9.264656      9.264656     18.529311
     -1.636637     10.256545     10.256545     20.513091
     -1.626627     11.172683     11.172683     22.345366
