# EIG2DOS: Utility for SIESTA to obtain the electronic density of states
#  E. Artacho, Apr 1999, A. Garcia, Apr 2012
#  Nick R. Papior, Feb 2017
# ------------------------------------------
# Eigenvalues calculated from a non-polarized calculation
# Eigenvalues read from siesta.EIG
# Kpoint weights read from siesta.KP
# Using smearing parameter:   0.0500
# Using 1000 points in the energy range
# Selected bands: 1 to: 2981
# Emin, Emax in file for selected band(s):    -27.0506164    218.3213150
# Nbands, Nspin, Nk   =   2981     1     1
# E_F                 =    -4.2876 eV --> (shifted to ZERO)
# Broadening          =     0.0500 eV
#
#        E            N(up)  (=)   N(down)         Ntot
     -5.000000     40.741265     40.741265     81.482531
     -4.989990     42.230372     42.230372     84.460744
     -4.979980     43.276093     43.276093     86.552186
     -4.969970     43.632627     43.632627     87.265254
     -4.959960     43.098226     43.098226     86.196452
     -4.949950     41.606499     41.606499     83.212997
     -4.939940     39.276087     39.276087     78.552174
     -4.929930     36.417087     36.417087     72.834174
     -4.919920     33.508472     33.508472     67.016943
     -4.909910     31.155791     31.155791     62.311582
     -4.899900     30.019664     30.019664     60.039328
     -4.889890     30.692643     30.692643     61.385286
     -4.879880     33.516913     33.516913     67.033825
     -4.869870     38.383233     38.383233     76.766466
     -4.859860     44.605992     44.605992     89.211984
     -4.849850     50.981419     50.981419    101.962838
     -4.839840     56.072553     56.072553    112.145107
     -4.829830     58.645056     58.645056    117.290112
     -4.819820     58.074793     58.074793    116.149585
     -4.809810     54.538237     54.538237    109.076473
     -4.799800     48.899382     48.899382     97.798764
     -4.789790     42.361605     42.361605     84.723209
     -4.779780     36.061013     36.061013     72.122027
     -4.769770     30.776553     30.776553     61.553106
     -4.759760     26.838185     26.838185     53.676370
     -4.749750     24.202504     24.202504     48.405008
     -4.739740     22.604079     22.604079     45.208157
     -4.729730     21.697338     21.697338     43.394675
     -4.719720     21.147271     21.147271     42.294541
     -4.709710     20.668756     20.668756     41.337511
     -4.699700     20.036317     20.036317     40.072634
     -4.689690     19.090835     19.090835     38.181670
     -4.679680     17.762703     17.762703     35.525407
     -4.669670     16.114479     16.114479     32.228958
     -4.659660     14.385250     14.385250     28.770499
     -4.649650     13.005055     13.005055     26.010110
     -4.639640     12.550120     12.550120     25.100241
     -4.629630     13.627610     13.627610     27.255221
     -4.619620     16.703623     16.703623     33.407246
     -4.609610     21.913437     21.913437     43.826873
     -4.599600     28.915030     28.915030     57.830060
     -4.589590     36.857336     36.857336     73.714671
     -4.579580     44.517141     44.517141     89.034282
     -4.569570     50.602106     50.602106    101.204212
     -4.559560     54.136811     54.136811    108.273621
     -4.549550     54.787198     54.787198    109.574397
     -4.539540     52.981467     52.981467    105.962935
     -4.529530     49.763767     49.763767     99.527533
     -4.519520     46.434204     46.434204     92.868409
     -4.509510     44.121754     44.121754     88.243508
     -4.499499     43.456990     43.456990     86.913979
     -4.489489     44.453439     44.453439     88.906878
     -4.479479     46.606151     46.606151     93.212302
     -4.469469     49.127676     49.127676     98.255352
     -4.459459     51.205839     51.205839    102.411678
     -4.449449     52.192564     52.192564    104.385128
     -4.439439     51.693800     51.693800    103.387599
     -4.429429     49.586722     49.586722     99.173443
     -4.419419     46.009903     46.009903     92.019805
     -4.409409     41.350518     41.350518     82.701036
     -4.399399     36.214015     36.214015     72.428029
     -4.389389     31.341624     31.341624     62.683249
     -4.379379     27.460237     27.460237     54.920474
     -4.369369     25.096668     25.096668     50.193335
     -4.359359     24.428896     24.428896     48.857792
     -4.349349     25.247101     25.247101     50.494202
     -4.339339     27.051370     27.051370     54.102739
     -4.329329     29.247205     29.247205     58.494411
     -4.319319     31.354083     31.354083     62.708167
     -4.309309     33.142056     33.142056     66.284113
     -4.299299     34.652400     34.652400     69.304800
     -4.289289     36.111880     36.111880     72.223759
     -4.279279     37.786221     37.786221     75.572441
     -4.269269     39.826464     39.826464     79.652927
     -4.259259     42.153965     42.153965     84.307930
     -4.249249     44.421501     44.421501     88.843001
     -4.239239     46.078513     46.078513     92.157026
     -4.229229     46.542214     46.542214     93.084428
     -4.219219     45.426631     45.426631     90.853261
     -4.209209     42.732514     42.732514     85.465028
     -4.199199     38.895383     38.895383     77.790765
     -4.189189     34.649362     34.649362     69.298723
     -4.179179     30.763170     30.763170     61.526339
     -4.169169     27.777643     27.777643     55.555287
     -4.159159     25.871251     25.871251     51.742501
     -4.149149     24.904653     24.904653     49.809305
     -4.139139     24.598594     24.598594     49.197187
     -4.129129     24.737802     24.737802     49.475604
     -4.119119     25.292249     25.292249     50.584498
     -4.109109     26.395826     26.395826     52.791652
     -4.099099     28.194838     28.194838     56.389675
     -4.089089     30.646876     30.646876     61.293753
     -4.079079     33.386957     33.386957     66.773914
     -4.069069     35.757828     35.757828     71.515657
     -4.059059     37.021494     37.021494     74.042988
     -4.049049     36.664010     36.664010     73.328020
     -4.039039     34.639353     34.639353     69.278707
     -4.029029     31.420695     31.420695     62.841391
     -4.019019     27.832149     27.832149     55.664298
     -4.009009     24.755084     24.755084     49.510167
     -3.998999     22.861446     22.861446     45.722892
     -3.988989     22.488838     22.488838     44.977677
     -3.978979     23.672758     23.672758     47.345515
     -3.968969     26.263098     26.263098     52.526196
     -3.958959     30.030101     30.030101     60.060202
     -3.948949     34.710455     34.710455     69.420911
     -3.938939     40.010149     40.010149     80.020297
     -3.928929     45.612850     45.612850     91.225700
     -3.918919     51.221522     51.221522    102.443043
     -3.908909     56.612332     56.612332    113.224665
     -3.898899     61.649714     61.649714    123.299427
     -3.888889     66.227578     66.227578    132.455157
     -3.878879     70.154562     70.154562    140.309123
     -3.868869     73.052982     73.052982    146.105964
     -3.858859     74.354103     74.354103    148.708205
     -3.848849     73.432150     73.432150    146.864300
     -3.838839     69.844616     69.844616    139.689232
     -3.828829     63.577875     63.577875    127.155750
     -3.818819     55.176828     55.176828    110.353655
     -3.808809     45.681776     45.681776     91.363552
     -3.798799     36.383122     36.383122     72.766244
     -3.788789     28.486240     28.486240     56.972481
     -3.778779     22.811533     22.811533     45.623066
     -3.768769     19.627533     19.627533     39.255065
     -3.758759     18.652617     18.652617     37.305235
     -3.748749     19.200501     19.200501     38.401002
     -3.738739     20.410164     20.410164     40.820328
     -3.728729     21.493696     21.493696     42.987393
     -3.718719     21.944082     21.944082     43.888164
     -3.708709     21.658538     21.658538     43.317076
     -3.698699     20.948845     20.948845     41.897691
     -3.688689     20.431013     20.431013     40.862025
     -3.678679     20.815155     20.815155     41.630309
     -3.668669     22.649473     22.649473     45.298946
     -3.658659     26.098486     26.098486     52.196972
     -3.648649     30.838448     30.838448     61.676896
     -3.638639     36.119721     36.119721     72.239441
     -3.628629     40.981492     40.981492     81.962984
     -3.618619     44.536786     44.536786     89.073571
     -3.608609     46.214139     46.214139     92.428277
     -3.598599     45.868892     45.868892     91.737784
     -3.588589     43.746151     43.746151     87.492302
     -3.578579     40.344005     40.344005     80.688010
     -3.568569     36.249951     36.249951     72.499902
     -3.558559     32.002910     32.002910     64.005819
     -3.548549     27.998805     27.998805     55.997610
     -3.538539     24.440716     24.440716     48.881432
     -3.528529     21.337998     21.337998     42.675995
     -3.518519     18.560665     18.560665     37.121330
     -3.508509     15.938927     15.938927     31.877854
     -3.498498     13.371492     13.371492     26.742984
     -3.488488     10.894944     10.894944     21.789888
     -3.478478      8.684082      8.684082     17.368165
     -3.468468      6.988181      6.988181     13.976362
     -3.458458      6.035846      6.035846     12.071692
     -3.448448      5.946582      5.946582     11.893164
     -3.438438      6.675842      6.675842     13.351684
     -3.428428      8.007230      8.007230     16.014459
     -3.418418      9.597438      9.597438     19.194876
     -3.408408     11.070541     11.070541     22.141081
     -3.398398     12.140953     12.140953     24.281907
     -3.388388     12.723852     12.723852     25.447704
     -3.378378     12.984767     12.984767     25.969533
     -3.368368     13.299461     13.299461     26.598923
     -3.358358     14.134648     14.134648     28.269297
     -3.348348     15.895427     15.895427     31.790854
     -3.338338     18.793527     18.793527     37.587054
     -3.328328     22.769507     22.769507     45.539014
     -3.318318     27.473200     27.473200     54.946401
     -3.308308     32.294788     32.294788     64.589576
     -3.298298     36.448003     36.448003     72.896005
     -3.288288     39.115260     39.115260     78.230520
     -3.278278     39.646304     39.646304     79.292607
     -3.268268     37.758530     37.758530     75.517060
     -3.258258     33.653701     33.653701     67.307402
     -3.248248     27.981615     27.981615     55.963230
     -3.238238     21.649946     21.649946     43.299893
     -3.228228     15.558588     15.558588     31.117175
     -3.218218     10.372006     10.372006     20.744012
     -3.208208      6.412841      6.412841     12.825682
     -3.198198      3.690544      3.690544      7.381088
     -3.188188      2.018312      2.018312      4.036623
     -3.178178      1.151130      1.151130      2.302260
     -3.168168      0.895066      0.895066      1.790132
     -3.158158      1.168782      1.168782      2.337564
     -3.148148      2.019871      2.019871      4.039741
     -3.138138      3.603840      3.603840      7.207680
     -3.128128      6.129793      6.129793     12.259585
     -3.118118      9.776214      9.776214     19.552429
     -3.108108     14.589643     14.589643     29.179286
     -3.098098     20.394865     20.394865     40.789730
     -3.088088     26.755607     26.755607     53.511214
     -3.078078     33.016765     33.016765     66.033530
     -3.068068     38.430079     38.430079     76.860157
     -3.058058     42.326980     42.326980     84.653960
     -3.048048     44.277195     44.277195     88.554390
     -3.038038     44.176840     44.176840     88.353681
     -3.028028     42.243812     42.243812     84.487624
     -3.018018     38.940016     38.940016     77.880032
     -3.008008     34.863387     34.863387     69.726775
     -2.997998     30.646815     30.646815     61.293631
     -2.987988     26.878217     26.878217     53.756434
     -2.977978     24.038875     24.038875     48.077749
     -2.967968     22.457750     22.457750     44.915500
     -2.957958     22.288742     22.288742     44.577483
     -2.947948     23.517552     23.517552     47.035105
     -2.937938     25.989624     25.989624     51.979249
     -2.927928     29.435878     29.435878     58.871757
     -2.917918     33.479287     33.479287     66.958575
     -2.907908     37.633643     37.633643     75.267287
     -2.897898     41.331764     41.331764     82.663529
     -2.887888     44.014808     44.014808     88.029615
     -2.877878     45.272903     45.272903     90.545805
     -2.867868     44.978343     44.978343     89.956685
     -2.857858     43.335614     43.335614     86.671227
     -2.847848     40.805976     40.805976     81.611951
     -2.837838     37.930317     37.930317     75.860633
     -2.827828     35.131498     35.131498     70.262997
     -2.817818     32.590489     32.590489     65.180978
     -2.807808     30.251226     30.251226     60.502452
     -2.797798     27.940231     27.940231     55.880462
     -2.787788     25.527539     25.527539     51.055077
     -2.777778     23.038100     23.038100     46.076200
     -2.767768     20.656124     20.656124     41.312249
     -2.757758     18.629324     18.629324     37.258648
     -2.747748     17.138537     17.138537     34.277074
     -2.737738     16.216429     16.216429     32.432857
     -2.727728     15.765438     15.765438     31.530875
     -2.717718     15.659547     15.659547     31.319093
     -2.707708     15.857883     15.857883     31.715767
     -2.697698     16.448056     16.448056     32.896112
     -2.687688     17.582566     17.582566     35.165132
     -2.677678     19.344850     19.344850     38.689701
     -2.667668     21.634112     21.634112     43.268224
     -2.657658     24.152579     24.152579     48.305157
     -2.647648     26.515252     26.515252     53.030504
     -2.637638     28.420999     28.420999     56.841998
     -2.627628     29.780750     29.780750     59.561500
     -2.617618     30.725428     30.725428     61.450857
     -2.607608     31.495533     31.495533     62.991066
     -2.597598     32.289084     32.289084     64.578168
     -2.587588     33.160969     33.160969     66.321939
     -2.577578     34.016928     34.016928     68.033855
     -2.567568     34.674368     34.674368     69.348735
     -2.557558     34.928677     34.928677     69.857354
     -2.547548     34.588841     34.588841     69.177682
     -2.537538     33.497314     33.497314     66.994629
     -2.527528     31.572402     31.572402     63.144805
     -2.517518     28.883734     28.883734     57.767468
     -2.507508     25.720459     25.720459     51.440918
     -2.497497     22.587999     22.587999     45.175998
     -2.487487     20.098693     20.098693     40.197386
     -2.477477     18.785139     18.785139     37.570277
     -2.467467     18.917178     18.917178     37.834357
     -2.457457     20.410167     20.410167     40.820333
     -2.447447     22.870999     22.870999     45.741998
     -2.437437     25.763585     25.763585     51.527170
     -2.427427     28.619554     28.619554     57.239107
     -2.417417     31.198310     31.198310     62.396621
     -2.407407     33.522908     33.522908     67.045817
     -2.397397     35.775455     35.775455     71.550911
     -2.387387     38.102881     38.102881     76.205762
     -2.377377     40.429974     40.429974     80.859948
     -2.367367     42.379071     42.379071     84.758142
     -2.357357     43.350647     43.350647     86.701294
     -2.347347     42.743835     42.743835     85.487671
     -2.337337     40.224615     40.224615     80.449231
     -2.327327     35.919232     35.919232     71.838463
     -2.317317     30.441403     30.441403     60.882806
     -2.307307     24.740211     24.740211     49.480422
     -2.297297     19.837555     19.837555     39.675110
     -2.287287     16.563896     16.563896     33.127793
     -2.277277     15.382866     15.382866     30.765731
     -2.267267     16.340988     16.340988     32.681976
     -2.257257     19.125991     19.125991     38.251981
     -2.247247     23.189549     23.189549     46.379097
     -2.237237     27.887243     27.887243     55.774485
     -2.227227     32.597387     32.597387     65.194774
     -2.217217     36.793952     36.793952     73.587903
     -2.207207     40.067932     40.067932     80.135864
     -2.197197     42.115263     42.115263     84.230526
     -2.187187     42.726589     42.726589     85.453178
     -2.177177     41.809298     41.809298     83.618595
     -2.167167     39.441105     39.441105     78.882211
     -2.157157     35.915316     35.915316     71.830632
     -2.147147     31.722195     31.722195     63.444390
     -2.137137     27.438774     27.438774     54.877549
     -2.127127     23.558293     23.558293     47.116585
     -2.117117     20.339399     20.339399     40.678799
     -2.107107     17.755334     17.755334     35.510667
     -2.097097     15.569669     15.569669     31.139339
     -2.087087     13.493314     13.493314     26.986629
     -2.077077     11.335798     11.335798     22.671595
     -2.067067      9.077642      9.077642     18.155285
     -2.057057      6.844781      6.844781     13.689563
     -2.047047      4.820882      4.820882      9.641763
     -2.037037      3.156035      3.156035      6.312070
     -2.027027      1.915271      1.915271      3.830541
     -2.017017      1.077099      1.077099      2.154199
     -2.007007      0.565410      0.565410      1.130820
     -1.996997      0.289938      0.289938      0.579876
     -1.986987      0.178096      0.178096      0.356192
     -1.976977      0.193238      0.193238      0.386475
     -1.966967      0.342358      0.342358      0.684716
     -1.956957      0.677003      0.677003      1.354006
     -1.946947      1.287186      1.287186      2.574373
     -1.936937      2.284174      2.284174      4.568349
     -1.926927      3.768500      3.768500      7.537001
     -1.916917      5.786282      5.786282     11.572564
     -1.906907      8.286919      8.286919     16.573839
     -1.896897     11.101710     11.101710     22.203420
     -1.886887     13.959065     13.959065     27.918131
     -1.876877     16.537612     16.537612     33.075223
     -1.866867     18.541505     18.541505     37.083009
     -1.856857     19.773203     19.773203     39.546405
     -1.846847     20.181516     20.181516     40.363032
     -1.836837     19.871585     19.871585     39.743170
     -1.826827     19.071843     19.071843     38.143686
     -1.816817     18.061382     18.061382     36.122763
     -1.806807     17.074627     17.074627     34.149253
     -1.796797     16.217321     16.217321     32.434642
     -1.786787     15.434918     15.434918     30.869837
     -1.776777     14.557242     14.557242     29.114483
     -1.766767     13.404557     13.404557     26.809114
     -1.756757     11.903780     11.903780     23.807560
     -1.746747     10.156090     10.156090     20.312180
     -1.736737      8.424804      8.424804     16.849608
     -1.726727      7.054906      7.054906     14.109812
     -1.716717      6.364752      6.364752     12.729503
     -1.706707      6.552585      6.552585     13.105171
     -1.696697      7.643713      7.643713     15.287427
     -1.686687      9.485230      9.485230     18.970459
     -1.676677     11.783066     11.783066     23.566132
     -1.666667     14.168467     14.168467     28.336935
     -1.656657     16.274183     16.274183     32.548366
     -1.646647     17.798072     17.798072     35.596144
     -1.636637     18.539790     18.539790     37.079580
     -1.626627     18.412927     18.412927     36.825855
