# EIG2DOS: Utility for SIESTA to obtain the electronic density of states
#  E. Artacho, Apr 1999, A. Garcia, Apr 2012
#  Nick R. Papior, Feb 2017
# ------------------------------------------
# Eigenvalues calculated from a non-polarized calculation
# Eigenvalues read from siesta.EIG
# Kpoint weights read from siesta.KP
# Using smearing parameter:   0.0500
# Using 1000 points in the energy range
# Selected bands: 1 to: 2981
# Emin, Emax in file for selected band(s):    -27.1677783    218.3384250
# Nbands, Nspin, Nk   =   2981     1     1
# E_F                 =    -4.2743 eV --> (shifted to ZERO)
# Broadening          =     0.0500 eV
#
#        E            N(up)  (=)   N(down)         Ntot
     -5.000000     35.525379     35.525379     71.050758
     -4.989990     38.169832     38.169832     76.339663
     -4.979980     40.724559     40.724559     81.449118
     -4.969970     42.672091     42.672091     85.344181
     -4.959960     43.555160     43.555160     87.110320
     -4.949950     43.115560     43.115560     86.231121
     -4.939940     41.374926     41.374926     82.749852
     -4.929930     38.643228     38.643228     77.286456
     -4.919920     35.469447     35.469447     70.938895
     -4.909910     32.559846     32.559846     65.119693
     -4.899900     30.676988     30.676988     61.353975
     -4.889890     30.511175     30.511175     61.022350
     -4.879880     32.512465     32.512465     65.024929
     -4.869870     36.703121     36.703121     73.406243
     -4.859860     42.542424     42.542424     85.084849
     -4.849850     48.943134     48.943134     97.886269
     -4.839840     54.500227     54.500227    109.000454
     -4.829830     57.890402     57.890402    115.780804
     -4.819820     58.292883     58.292883    116.585766
     -4.809810     55.644829     55.644829    111.289658
     -4.799800     50.615031     50.615031    101.230062
     -4.789790     44.320306     44.320306     88.640613
     -4.779780     37.931635     37.931635     75.863270
     -4.769770     32.347276     32.347276     64.694552
     -4.759760     28.041354     28.041354     56.082708
     -4.749750     25.088106     25.088106     50.176211
     -4.739740     23.286609     23.286609     46.573217
     -4.729730     22.300274     22.300274     44.600548
     -4.719720     21.760622     21.760622     43.521245
     -4.709710     21.326944     21.326944     42.653889
     -4.699700     20.717964     20.717964     41.435928
     -4.689690     19.736563     19.736563     39.473127
     -4.679680     18.301333     18.301333     36.602666
     -4.669670     16.484925     16.484925     32.969850
     -4.659660     14.544245     14.544245     29.088490
     -4.649650     12.919115     12.919115     25.838229
     -4.639640     12.179953     12.179953     24.359906
     -4.629630     12.919585     12.919585     25.839171
     -4.619620     15.602574     15.602574     31.205149
     -4.609610     20.403097     20.403097     40.806195
     -4.599600     27.078559     27.078559     54.157117
     -4.589590     34.935752     34.935752     69.871504
     -4.579580     42.935781     42.935781     85.871562
     -4.569570     49.941055     49.941055     99.882111
     -4.559560     55.040493     55.040493    110.080987
     -4.549550     57.831876     57.831876    115.663752
     -4.539540     58.534859     58.534859    117.069719
     -4.529530     57.871719     57.871719    115.743438
     -4.519520     56.759014     56.759014    113.518028
     -4.509510     55.944164     55.944164    111.888329
     -4.499499     55.744033     55.744033    111.488067
     -4.489489     55.985661     55.985661    111.971322
     -4.479479     56.147655     56.147655    112.295310
     -4.469469     55.612696     55.612696    111.225392
     -4.459459     53.910568     53.910568    107.821136
     -4.449449     50.861998     50.861998    101.723996
     -4.439439     46.597420     46.597420     93.194841
     -4.429429     41.482913     41.482913     82.965826
     -4.419419     36.012084     36.012084     72.024169
     -4.409409     30.713230     30.713230     61.426459
     -4.399399     26.089010     26.089010     52.178020
     -4.389389     22.574043     22.574043     45.148086
     -4.379379     20.485181     20.485181     40.970362
     -4.369369     19.956605     19.956605     39.913210
     -4.359359     20.883311     20.883311     41.766621
     -4.349349     22.915515     22.915515     45.831030
     -4.339339     25.533774     25.533774     51.067548
     -4.329329     28.194548     28.194548     56.389096
     -4.319319     30.494481     30.494481     60.988963
     -4.309309     32.286407     32.286407     64.572814
     -4.299299     33.699713     33.699713     67.399426
     -4.289289     35.057682     35.057682     70.115363
     -4.279279     36.721553     36.721553     73.443106
     -4.269269     38.912300     38.912300     77.824599
     -4.259259     41.568201     41.568201     83.136402
     -4.249249     44.293908     44.293908     88.587816
     -4.239239     46.439737     46.439737     92.879473
     -4.229229     47.308230     47.308230     94.616460
     -4.219219     46.423290     46.423290     92.846580
     -4.209209     43.747108     43.747108     87.494217
     -4.199199     39.733626     39.733626     79.467253
     -4.189189     35.179139     35.179139     70.358278
     -4.179179     30.935871     30.935871     61.871741
     -4.169169     27.626925     27.626925     55.253849
     -4.159159     25.493782     25.493782     50.987564
     -4.149149     24.428316     24.428316     48.856632
     -4.139139     24.143836     24.143836     48.287671
     -4.129129     24.380192     24.380192     48.760383
     -4.119119     25.038289     25.038289     50.076578
     -4.109109     26.185180     26.185180     52.370360
     -4.099099     27.934810     27.934810     55.869619
     -4.089089     30.268722     30.268722     60.537445
     -4.079079     32.896786     32.896786     65.793573
     -4.069069     35.250901     35.250901     70.501803
     -4.059059     36.645437     36.645437     73.290874
     -4.049049     36.546817     36.546817     73.093634
     -4.039039     34.822228     34.822228     69.644456
     -4.029029     31.835411     31.835411     63.670821
     -4.019019     28.335803     28.335803     56.671607
     -4.009009     25.199743     25.199743     50.399486
     -3.998999     23.156643     23.156643     46.313285
     -3.988989     22.623720     22.623720     45.247439
     -3.978979     23.693444     23.693444     47.386889
     -3.968969     26.227876     26.227876     52.455752
     -3.958959     29.972753     29.972753     59.945507
     -3.948949     34.628909     34.628909     69.257819
     -3.938939     39.877172     39.877172     79.754344
     -3.928929     45.393762     45.393762     90.787524
     -3.918919     50.886769     50.886769    101.773539
     -3.908909     56.143869     56.143869    112.287737
     -3.898899     61.047938     61.047938    122.095875
     -3.888889     65.523748     65.523748    131.047495
     -3.878879     69.424691     69.424691    138.849382
     -3.868869     72.421488     72.421488    144.842975
     -3.858859     73.975893     73.975893    147.951785
     -3.848849     73.451673     73.451673    146.903345
     -3.838839     70.344325     70.344325    140.688649
     -3.828829     64.537996     64.537996    129.075991
     -3.818819     56.466560     56.466560    112.933119
     -3.808809     47.088995     47.088995     94.177990
     -3.798799     37.672402     37.672402     75.344803
     -3.788789     29.463287     29.463287     58.926575
     -3.778779     23.371511     23.371511     46.743022
     -3.768769     19.773600     19.773600     39.547200
     -3.758759     18.482913     18.482913     36.965827
     -3.748749     18.871053     18.871053     37.742106
     -3.738739     20.085792     20.085792     40.171584
     -3.728729     21.299977     21.299977     42.599954
     -3.718719     21.932241     21.932241     43.864483
     -3.708709     21.792287     21.792287     43.584574
     -3.698699     21.117491     21.117491     42.234982
     -3.688689     20.486765     20.486765     40.973531
     -3.678679     20.625193     20.625193     41.250386
     -3.668669     22.146896     22.146896     44.293791
     -3.658659     25.313775     25.313775     50.627550
     -3.648649     29.897590     29.897590     59.795181
     -3.638639     35.207285     35.207285     70.414570
     -3.628629     40.282397     40.282397     80.564794
     -3.618619     44.180830     44.180830     88.361660
     -3.608609     46.245501     46.245501     92.491003
     -3.598599     46.249077     46.249077     92.498153
     -3.588589     44.382001     44.382001     88.764002
     -3.578579     41.123252     41.123252     82.246503
     -3.568569     37.069606     37.069606     74.139211
     -3.558559     32.785527     32.785527     65.571055
     -3.548549     28.699190     28.699190     57.398380
     -3.538539     25.046397     25.046397     50.092795
     -3.528529     21.863609     21.863609     43.727219
     -3.518519     19.035209     19.035209     38.070417
     -3.508509     16.388046     16.388046     32.776092
     -3.498498     13.801240     13.801240     27.602481
     -3.488488     11.284345     11.284345     22.568689
     -3.478478      8.989803      8.989803     17.979605
     -3.468468      7.159075      7.159075     14.318149
     -3.458458      6.031767      6.031767     12.063535
     -3.448448      5.755754      5.755754     11.511507
     -3.438438      6.326179      6.326179     12.652359
     -3.428428      7.567567      7.567567     15.135134
     -3.418418      9.165406      9.165406     18.330812
     -3.408408     10.747070     10.747070     21.494140
     -3.398398     11.997372     11.997372     23.994744
     -3.388388     12.772914     12.772914     25.545828
     -3.378378     13.167303     13.167303     26.334606
     -3.368368     13.492395     13.492395     26.984790
     -3.358358     14.177850     14.177850     28.355700
     -3.348348     15.629905     15.629905     31.259809
     -3.338338     18.103685     18.103685     36.207371
     -3.328328     21.623879     21.623879     43.247759
     -3.318318     25.955975     25.955975     51.911949
     -3.308308     30.614748     30.614748     61.229496
     -3.298298     34.909740     34.909740     69.819480
     -3.288288     38.048126     38.048126     76.096252
     -3.278278     39.308914     39.308914     78.617828
     -3.268268     38.257558     38.257558     76.515116
     -3.258258     34.918143     34.918143     69.836286
     -3.248248     29.811550     29.811550     59.623101
     -3.238238     23.823568     23.823568     47.647136
     -3.228228     17.953936     17.953936     35.907872
     -3.218218     13.054527     13.054527     26.109053
     -3.208208      9.655023      9.655023     19.310046
     -3.198198      7.913805      7.913805     15.827610
     -3.188188      7.670338      7.670338     15.340676
     -3.178178      8.551828      8.551828     17.103656
     -3.168168     10.100338     10.100338     20.200676
     -3.158158     11.906525     11.906525     23.813049
     -3.148148     13.735723     13.735723     27.471446
     -3.138138     15.612104     15.612104     31.224209
     -3.128128     17.812852     17.812852     35.625704
     -3.118118     20.742920     20.742920     41.485839
     -3.108108     24.714206     24.714206     49.428412
     -3.098098     29.714006     29.714006     59.428012
     -3.088088     35.276570     35.276570     70.553139
     -3.078078     40.541782     40.541782     81.083564
     -3.068068     44.501789     44.501789     89.003579
     -3.058058     46.339401     46.339401     92.678801
     -3.048048     45.706382     45.706382     91.412764
     -3.038038     42.813789     42.813789     85.627579
     -3.028028     38.303056     38.303056     76.606112
     -3.018018     32.980550     32.980550     65.961100
     -3.008008     27.559851     27.559851     55.119702
     -2.997998     22.529545     22.529545     45.059091
     -2.987988     18.174470     18.174470     36.348941
     -2.977978     14.689012     14.689012     29.378023
     -2.967968     12.285854     12.285854     24.571708
     -2.957958     11.230094     11.230094     22.460188
     -2.947948     11.784256     11.784256     23.568513
     -2.937938     14.096047     14.096047     28.192094
     -2.927928     18.081023     18.081023     36.162047
     -2.917918     23.351654     23.351654     46.703308
     -2.907908     29.231388     29.231388     58.462776
     -2.897898     34.868588     34.868588     69.737176
     -2.887888     39.429757     39.429757     78.859515
     -2.877878     42.313236     42.313236     84.626471
     -2.867868     43.303428     43.303428     86.606855
     -2.857858     42.599660     42.599660     85.199320
     -2.847848     40.703193     40.703193     81.406387
     -2.837838     38.208828     38.208828     76.417656
     -2.827828     35.591450     35.591450     71.182899
     -2.817818     33.078701     33.078701     66.157403
     -2.807808     30.657141     30.657141     61.314283
     -2.797798     28.192743     28.192743     56.385485
     -2.787788     25.591478     25.591478     51.182956
     -2.777778     22.910502     22.910502     45.821004
     -2.767768     20.362857     20.362857     40.725713
     -2.757758     18.221103     18.221103     36.442205
     -2.747748     16.683309     16.683309     33.366619
     -2.737738     15.785275     15.785275     31.570550
     -2.727728     15.412950     15.412950     30.825901
     -2.717718     15.405369     15.405369     30.810738
     -2.707708     15.679335     15.679335     31.358669
     -2.697698     16.290686     16.290686     32.581373
     -2.687688     17.386238     17.386238     34.772476
     -2.677678     19.072811     19.072811     38.145622
     -2.667668     21.288720     21.288720     42.577441
     -2.657658     23.767853     23.767853     47.535706
     -2.647648     26.130270     26.130270     52.260540
     -2.637638     28.050761     28.050761     56.101522
     -2.627628     29.403542     29.403542     58.807084
     -2.617618     30.295510     30.295510     60.591020
     -2.607608     30.973552     30.973552     61.947104
     -2.597598     31.671400     31.671400     63.342801
     -2.587588     32.490989     32.490989     64.981979
     -2.577578     33.374621     33.374621     66.749243
     -2.567568     34.153685     34.153685     68.307371
     -2.557558     34.616154     34.616154     69.232309
     -2.547548     34.549187     34.549187     69.098374
     -2.537538     33.762095     33.762095     67.524190
     -2.527528     32.126336     32.126336     64.252673
     -2.517518     29.651209     29.651209     59.302417
     -2.507508     26.564100     26.564100     53.128200
     -2.497497     23.331132     23.331132     46.662264
     -2.487487     20.571968     20.571968     41.143936
     -2.477477     18.882012     18.882012     37.764024
     -2.467467     18.634316     18.634316     37.268633
     -2.457457     19.853145     19.853145     39.706290
     -2.447447     22.220724     22.220724     44.441449
     -2.437437     25.216552     25.216552     50.433103
     -2.427427     28.326166     28.326166     56.652332
     -2.417417     31.222694     31.222694     62.445388
     -2.407407     33.836134     33.836134     67.672269
     -2.397397     36.279229     36.279229     72.558458
     -2.387387     38.670679     38.670679     77.341357
     -2.377377     40.950587     40.950587     81.901174
     -2.367367     42.790461     42.790461     85.580922
     -2.357357     43.655538     43.655538     87.311076
     -2.347347     43.002064     43.002064     86.004128
     -2.337337     40.523725     40.523725     81.047451
     -2.327327     36.334293     36.334293     72.668585
     -2.317317     31.001877     31.001877     62.003753
     -2.307307     25.419083     25.419083     50.838166
     -2.297297     20.565654     20.565654     41.131307
     -2.287287     17.258460     17.258460     34.516920
     -2.277277     15.973634     15.973634     31.947268
     -2.267267     16.782363     16.782363     33.564726
     -2.257257     19.394710     19.394710     38.789420
     -2.247247     23.275665     23.275665     46.551330
     -2.237237     27.787660     27.787660     55.575319
     -2.227227     32.316923     32.316923     64.633847
     -2.217217     36.352862     36.352862     72.705725
     -2.207207     39.510279     39.510279     79.020557
     -2.197197     41.511016     41.511016     83.022033
     -2.187187     42.162372     42.162372     84.324743
     -2.177177     41.367968     41.367968     82.735936
     -2.167167     39.177225     39.177225     78.354449
     -2.157157     35.838095     35.838095     71.676191
     -2.147147     31.795903     31.795903     63.591806
     -2.137137     27.602127     27.602127     55.204254
     -2.127127     23.753513     23.753513     47.507027
     -2.117117     20.535659     20.535659     41.071318
     -2.107107     17.954659     17.954659     35.909318
     -2.097097     15.794189     15.794189     31.588377
     -2.087087     13.763547     13.763547     27.527095
     -2.077077     11.653549     11.653549     23.307098
     -2.067067      9.422194      9.422194     18.844387
     -2.057057      7.181914      7.181914     14.363828
     -2.047047      5.117282      5.117282     10.234565
     -2.037037      3.390611      3.390611      6.781223
     -2.027027      2.082852      2.082852      4.165703
     -2.017017      1.185134      1.185134      2.370268
     -2.007007      0.627230      0.627230      1.254460
     -1.996997      0.318103      0.318103      0.636206
     -1.986987      0.179537      0.179537      0.359074
     -1.976977      0.166203      0.166203      0.332405
     -1.966967      0.274662      0.274662      0.549323
     -1.956957      0.545831      0.545831      1.091661
     -1.946947      1.061907      1.061907      2.123815
     -1.936937      1.934047      1.934047      3.868095
     -1.926927      3.275701      3.275701      6.551402
     -1.916917      5.161211      5.161211     10.322423
     -1.906907      7.578952      7.578952     15.157904
     -1.896897     10.397427     10.397427     20.794854
     -1.886887     13.364055     13.364055     26.728109
     -1.876877     16.146311     16.146311     32.292622
     -1.866867     18.407940     18.407940     36.815880
     -1.856857     19.898465     19.898465     39.796930
     -1.846847     20.529180     20.529180     41.058361
     -1.836837     20.412161     20.412161     40.824322
     -1.826827     19.845780     19.845780     39.691559
     -1.816817     19.239825     19.239825     38.479651
     -1.806807     18.989728     18.989728     37.979456
     -1.796797     19.333323     19.333323     38.666647
     -1.786787     20.244005     20.244005     40.488010
     -1.776777     21.413116     21.413116     42.826233
     -1.766767     22.342893     22.342893     44.685787
     -1.756757     22.521003     22.521003     45.042006
     -1.746747     21.606518     21.606518     43.213037
     -1.736737     19.550221     19.550221     39.100442
     -1.726727     16.604309     16.604309     33.208618
     -1.716717     13.229260     13.229260     26.458521
     -1.706707      9.949131      9.949131     19.898262
     -1.696697      7.218729      7.218729     14.437457
     -1.686687      5.344877      5.344877     10.689755
     -1.676677      4.466575      4.466575      8.933150
     -1.666667      4.569720      4.569720      9.139441
     -1.656657      5.507363      5.507363     11.014727
     -1.646647      7.014596      7.014596     14.029192
     -1.636637      8.731226      8.731226     17.462453
     -1.626627     10.254731     10.254731     20.509462
