# EIG2DOS: Utility for SIESTA to obtain the electronic density of states
#  E. Artacho, Apr 1999, A. Garcia, Apr 2012
#  Nick R. Papior, Feb 2017
# ------------------------------------------
# Eigenvalues calculated from a non-polarized calculation
# Eigenvalues read from siesta.EIG
# Kpoint weights read from siesta.KP
# Using smearing parameter:   0.0500
# Using 1000 points in the energy range
# Selected bands: 1 to: 2981
# Emin, Emax in file for selected band(s):    -27.0315247    218.3047710
# Nbands, Nspin, Nk   =   2981     1     1
# E_F                 =    -4.3071 eV --> (shifted to ZERO)
# Broadening          =     0.0500 eV
#
#        E            N(up)  (=)   N(down)         Ntot
     -5.000000     41.096116     41.096116     82.192233
     -4.989990     46.107275     46.107275     92.214550
     -4.979980     50.141270     50.141270    100.282541
     -4.969970     52.615151     52.615151    105.230302
     -4.959960     53.140223     53.140223    106.280447
     -4.949950     51.648262     51.648262    103.296523
     -4.939940     48.433127     48.433127     96.866254
     -4.929930     44.098775     44.098775     88.197550
     -4.919920     39.447087     39.447087     78.894173
     -4.909910     35.352862     35.352862     70.705724
     -4.899900     32.650603     32.650603     65.301206
     -4.889890     32.020021     32.020021     64.040041
     -4.879880     33.843189     33.843189     67.686378
     -4.869870     38.039660     38.039660     76.079320
     -4.859860     43.948578     43.948578     87.897155
     -4.849850     50.363714     50.363714    100.727428
     -4.839840     55.787917     55.787917    111.575835
     -4.829830     58.860664     58.860664    117.721327
     -4.819820     58.793945     58.793945    117.587889
     -4.809810     55.615894     55.615894    111.231788
     -4.799800     50.106874     50.106874    100.213748
     -4.789790     43.470797     43.470797     86.941594
     -4.779780     36.912407     36.912407     73.824813
     -4.769770     31.310196     31.310196     62.620393
     -4.759760     27.087537     27.087537     54.175074
     -4.749750     24.264973     24.264973     48.529946
     -4.739740     22.603407     22.603407     45.206813
     -4.729730     21.747904     21.747904     43.495808
     -4.719720     21.326268     21.326268     42.652535
     -4.709710     21.000889     21.000889     42.001779
     -4.699700     20.493961     20.493961     40.987922
     -4.689690     19.607716     19.607716     39.215432
     -4.679680     18.253265     18.253265     36.506529
     -4.669670     16.488811     16.488811     32.977622
     -4.659660     14.553693     14.553693     29.107387
     -4.649650     12.875173     12.875173     25.750346
     -4.639640     12.026444     12.026444     24.052889
     -4.629630     12.626276     12.626276     25.252552
     -4.619620     15.187191     15.187191     30.374382
     -4.609610     19.937439     19.937439     39.874878
     -4.599600     26.663243     26.663243     53.326485
     -4.589590     34.637209     34.637209     69.274418
     -4.579580     42.698278     42.698278     85.396557
     -4.569570     49.508139     49.508139     99.016279
     -4.559560     53.930837     53.930837    107.861674
     -4.549550     55.403255     55.403255    110.806509
     -4.539540     54.137594     54.137594    108.275187
     -4.529530     51.052787     51.052787    102.105574
     -4.519520     47.449122     47.449122     94.898244
     -4.509510     44.556712     44.556712     89.113424
     -4.499499     43.140574     43.140574     86.281149
     -4.489489     43.308582     43.308582     86.617165
     -4.479479     44.569740     44.569740     89.139480
     -4.469469     46.084731     46.084731     92.169462
     -4.459459     46.988447     46.988447     93.976894
     -4.449449     46.663962     46.663962     93.327923
     -4.439439     44.893896     44.893896     89.787792
     -4.429429     41.875182     41.875182     83.750363
     -4.419419     38.127380     38.127380     76.254759
     -4.409409     34.340925     34.340925     68.681850
     -4.399399     31.206412     31.206412     62.412823
     -4.389389     29.255280     29.255280     58.510560
     -4.379379     28.738122     28.738122     57.476243
     -4.369369     29.568357     29.568357     59.136713
     -4.359359     31.354155     31.354155     62.708310
     -4.349349     33.519824     33.519824     67.039648
     -4.339339     35.483802     35.483802     70.967605
     -4.329329     36.832988     36.832988     73.665977
     -4.319319     37.431868     37.431868     74.863736
     -4.309309     37.433182     37.433182     74.866364
     -4.299299     37.198217     37.198217     74.396434
     -4.289289     37.164982     37.164982     74.329964
     -4.279279     37.707711     37.707711     75.415423
     -4.269269     39.017558     39.017558     78.035117
     -4.259259     41.021434     41.021434     82.042868
     -4.249249     43.356977     43.356977     86.713954
     -4.239239     45.428939     45.428939     90.857879
     -4.229229     46.562173     46.562173     93.124346
     -4.219219     46.224696     46.224696     92.449391
     -4.209209     44.239362     44.239362     88.478725
     -4.199199     40.879156     40.879156     81.758312
     -4.189189     36.782648     36.782648     73.565297
     -4.179179     32.718783     32.718783     65.437566
     -4.169169     29.314854     29.314854     58.629709
     -4.159159     26.879846     26.879846     53.759691
     -4.149149     25.395974     25.395974     50.791948
     -4.139139     24.656862     24.656862     49.313724
     -4.129129     24.459828     24.459828     48.919656
     -4.119119     24.745023     24.745023     49.490045
     -4.109109     25.610930     25.610930     51.221861
     -4.099099     27.199991     27.199991     54.399982
     -4.089089     29.514396     29.514396     59.028791
     -4.079079     32.266235     32.266235     64.532470
     -4.069069     34.863618     34.863618     69.727236
     -4.059059     36.573336     36.573336     73.146673
     -4.049049     36.802583     36.802583     73.605166
     -4.039039     35.363040     35.363040     70.726079
     -4.029029     32.576906     32.576906     65.153811
     -4.019019     29.167571     29.167571     58.335142
     -4.009009     25.997310     25.997310     51.994621
     -3.998999     23.792039     23.792039     47.584077
     -3.988989     22.980251     22.980251     45.960502
     -3.978979     23.686641     23.686641     47.373283
     -3.968969     25.826646     25.826646     51.653291
     -3.958959     29.209836     29.209836     58.419672
     -3.948949     33.592608     33.592608     67.185216
     -3.938939     38.685568     38.685568     77.371137
     -3.928929     44.161997     44.161997     88.323993
     -3.918919     49.701619     49.701619     99.403238
     -3.908909     55.056072     55.056072    110.112143
     -3.898899     60.083814     60.083814    120.167628
     -3.888889     64.707911     64.707911    129.415821
     -3.878879     68.799532     68.799532    137.599063
     -3.868869     72.050146     72.050146    144.100292
     -3.858859     73.924194     73.924194    147.848389
     -3.848849     73.757028     73.757028    147.514055
     -3.838839     70.988394     70.988394    141.976787
     -3.828829     65.438905     65.438905    130.877810
     -3.818819     57.495871     57.495871    114.991743
     -3.808809     48.105435     48.105435     96.210870
     -3.798799     38.556962     38.556962     77.113925
     -3.788789     30.142273     30.142273     60.284546
     -3.778779     23.822385     23.822385     47.644770
     -3.768769     20.016808     20.016808     40.033616
     -3.758759     18.566772     18.566772     37.133544
     -3.748749     18.855972     18.855972     37.711943
     -3.738739     20.031074     20.031074     40.062148
     -3.728729     21.253935     21.253935     42.507870
     -3.718719     21.925476     21.925476     43.850952
     -3.708709     21.834245     21.834245     43.668491
     -3.698699     21.196788     21.196788     42.393576
     -3.688689     20.575497     20.575497     41.150994
     -3.678679     20.686634     20.686634     41.373268
     -3.668669     22.145026     22.145026     44.290051
     -3.658659     25.222572     25.222572     50.445143
     -3.648649     29.708145     29.708145     59.416290
     -3.638639     34.931394     34.931394     69.862787
     -3.628629     39.952026     39.952026     79.904051
     -3.618619     43.843512     43.843512     87.687025
     -3.608609     45.956234     45.956234     91.912467
     -3.598599     46.059800     46.059800     92.119600
     -3.588589     44.330503     44.330503     88.661006
     -3.578579     41.224131     41.224131     82.448263
     -3.568569     37.310223     37.310223     74.620446
     -3.558559     33.128895     33.128895     66.257791
     -3.548549     29.093457     29.093457     58.186914
     -3.538539     25.437914     25.437914     50.875828
     -3.528529     22.209110     22.209110     44.418219
     -3.518519     19.309266     19.309266     38.618532
     -3.508509     16.584296     16.584296     33.168593
     -3.498498     13.928482     13.928482     27.856964
     -3.488488     11.360163     11.360163     22.720325
     -3.478478      9.034346      9.034346     18.068692
     -3.468468      7.190502      7.190502     14.381004
     -3.458458      6.063567      6.063567     12.127134
     -3.448448      5.795375      5.795375     11.590751
     -3.438438      6.374395      6.374395     12.748791
     -3.428428      7.618460      7.618460     15.236920
     -3.418418      9.207343      9.207343     18.414685
     -3.408408     10.765030     10.765030     21.530059
     -3.398398     11.976538     11.976538     23.953077
     -3.388388     12.702858     12.702858     25.405715
     -3.378378     13.045739     13.045739     26.091479
     -3.368368     13.327533     13.327533     26.655066
     -3.358358     13.988458     13.988458     27.976917
     -3.348348     15.442402     15.442402     30.884804
     -3.338338     17.946119     17.946119     35.892238
     -3.328328     21.518010     21.518010     43.036020
     -3.318318     25.910370     25.910370     51.820741
     -3.308308     30.622414     30.622414     61.244828
     -3.298298     34.952064     34.952064     69.904129
     -3.288288     38.103206     38.103206     76.206412
     -3.278278     39.358930     39.358930     78.717860
     -3.268268     38.289263     38.289263     76.578526
     -3.258258     34.913191     34.913191     69.826383
     -3.248248     29.727311     29.727311     59.454621
     -3.238238     23.568033     23.568033     47.136066
     -3.228228     17.360257     17.360257     34.720514
     -3.218218     11.863336     11.863336     23.726672
     -3.208208      7.516837      7.516837     15.033674
     -3.198198      4.425961      4.425961      8.851921
     -3.188188      2.456509      2.456509      4.913019
     -3.178178      1.373340      1.373340      2.746680
     -3.168168      0.962923      0.962923      1.925845
     -3.158158      1.110044      1.110044      2.220088
     -3.148148      1.825045      1.825045      3.650091
     -3.138138      3.228743      3.228743      6.457485
     -3.128128      5.501406      5.501406     11.002811
     -3.118118      8.801722      8.801722     17.603444
     -3.108108     13.170029     13.170029     26.340057
     -3.098098     18.445134     18.445134     36.890269
     -3.088088     24.233520     24.233520     48.467040
     -3.078078     29.959558     29.959558     59.919116
     -3.068068     34.991970     34.991970     69.983939
     -3.058058     38.799932     38.799932     77.599865
     -3.048048     41.069881     41.069881     82.139762
     -3.038038     41.732532     41.732532     83.465063
     -3.028028     40.903165     40.903165     81.806330
     -3.018018     38.791740     38.791740     77.583480
     -3.008008     35.652557     35.652557     71.305113
     -2.997998     31.804084     31.804084     63.608169
     -2.987988     27.687297     27.687297     55.374595
     -2.977978     23.893411     23.893411     47.786822
     -2.967968     21.106610     21.106610     42.213220
     -2.957958     19.960741     19.960741     39.921482
     -2.947948     20.861689     20.861689     41.723378
     -2.937938     23.847214     23.847214     47.694427
     -2.927928     28.538842     28.538842     57.077683
     -2.917918     34.203529     34.203529     68.407058
     -2.907908     39.907067     39.907067     79.814134
     -2.897898     44.717864     44.717864     89.435727
     -2.887888     47.909794     47.909794     95.819587
     -2.877878     49.113598     49.113598     98.227197
     -2.867868     48.376665     48.376665     96.753331
     -2.857858     46.111852     46.111852     92.223705
     -2.847848     42.946918     42.946918     85.893836
     -2.837838     39.520476     39.520476     79.040953
     -2.827828     36.294608     36.294608     72.589216
     -2.817818     33.453193     33.453193     66.906386
     -2.807808     30.922582     30.922582     61.845164
     -2.797798     28.497872     28.497872     56.995744
     -2.787788     26.008839     26.008839     52.017679
     -2.777778     23.441345     23.441345     46.882690
     -2.767768     20.955243     20.955243     41.910486
     -2.757758     18.797278     18.797278     37.594555
     -2.747748     17.166319     17.166319     34.332637
     -2.737738     16.114583     16.114583     32.229166
     -2.727728     15.545248     15.545248     31.090497
     -2.717718     15.306082     15.306082     30.612163
     -2.707708     15.316630     15.316630     30.633261
     -2.697698     15.642590     15.642590     31.285180
     -2.687688     16.462414     16.462414     32.924828
     -2.677678     17.940376     17.940376     35.880752
     -2.667668     20.083750     20.083750     40.167500
     -2.657658     22.677571     22.677571     45.355141
     -2.647648     25.345591     25.345591     50.691183
     -2.637638     27.707043     27.707043     55.414086
     -2.627628     29.536912     29.536912     59.073824
     -2.617618     30.835378     30.835378     61.670756
     -2.607608     31.772597     31.772597     63.545194
     -2.597598     32.555641     32.555641     65.111283
     -2.587588     33.306831     33.306831     66.613662
     -2.577578     34.018381     34.018381     68.036761
     -2.567568     34.582479     34.582479     69.164959
     -2.557558     34.846118     34.846118     69.692235
     -2.547548     34.645137     34.645137     69.290275
     -2.537538     33.818350     33.818350     67.636700
     -2.527528     32.238809     32.238809     64.477617
     -2.517518     29.886778     29.886778     59.773555
     -2.507508     26.938380     26.938380     53.876760
     -2.497497     23.804106     23.804106     47.608212
     -2.487487     21.062643     21.062643     42.125287
     -2.477477     19.294258     19.294258     38.588517
     -2.467467     18.882387     18.882387     37.764774
     -2.457457     19.878343     19.878343     39.756686
     -2.447447     21.996826     21.996826     43.993652
     -2.437437     24.746778     24.746778     49.493557
     -2.427427     27.636818     27.636818     55.273635
     -2.417417     30.358388     30.358388     60.716776
     -2.407407     32.859563     32.859563     65.719127
     -2.397397     35.274666     35.274666     70.549331
     -2.387387     37.746093     37.746093     75.492186
     -2.377377     40.230851     40.230851     80.461702
     -2.367367     42.396657     42.396657     84.793313
     -2.357357     43.673075     43.673075     87.346150
     -2.347347     43.449138     43.449138     86.898276
     -2.337337     41.335340     41.335340     82.670680
     -2.327327     37.371903     37.371903     74.743807
     -2.317317     32.086901     32.086901     64.173802
     -2.307307     26.377213     26.377213     52.754426
     -2.297297     21.264976     21.264976     42.529952
     -2.287287     17.629443     17.629443     35.258886
     -2.277277     16.008760     16.008760     32.017520
     -2.267267     16.521407     16.521407     33.042814
     -2.257257     18.904872     18.904872     37.809744
     -2.247247     22.634525     22.634525     45.269050
     -2.237237     27.073410     27.073410     54.146821
     -2.227227     31.606224     31.606224     63.212449
     -2.217217     35.722719     35.722719     71.445438
     -2.207207     39.037877     39.037877     78.075754
     -2.197197     41.266276     41.266276     82.532551
     -2.187187     42.192654     42.192654     84.385309
     -2.177177     41.680717     41.680717     83.361434
     -2.167167     39.730108     39.730108     79.460217
     -2.157157     36.544506     36.544506     73.089013
     -2.147147     32.546724     32.546724     65.093448
     -2.137137     28.296380     28.296380     56.592759
     -2.127127     24.325550     24.325550     48.651100
     -2.117117     20.967853     20.967853     41.935706
     -2.107107     18.271421     18.271421     36.542843
     -2.097097     16.041879     16.041879     32.083759
     -2.087087     13.986755     13.986755     27.973511
     -2.077077     11.878335     11.878335     23.756670
     -2.067067      9.651754      9.651754     19.303508
     -2.057057      7.403197      7.403197     14.806394
     -2.047047      5.312413      5.312413     10.624826
     -2.037037      3.546554      3.546554      7.093107
     -2.027027      2.195727      2.195727      4.391455
     -2.017017      1.259348      1.259348      2.518697
     -2.007007      0.671869      0.671869      1.343737
     -1.996997      0.343271      0.343271      0.686543
     -1.986987      0.194181      0.194181      0.388362
     -1.976977      0.177632      0.177632      0.355263
     -1.966967      0.289159      0.289159      0.578317
     -1.956957      0.569440      0.569440      1.138881
     -1.946947      1.100541      1.100541      2.201082
     -1.936937      1.992297      1.992297      3.984595
     -1.926927      3.354321      3.354321      6.708642
     -1.916917      5.254097      5.254097     10.508194
     -1.906907      7.671386      7.671386     15.342772
     -1.896897     10.467576     10.467576     20.935151
     -1.886887     13.388505     13.388505     26.777009
     -1.876877     16.107830     16.107830     32.215659
     -1.866867     18.300709     18.300709     36.601417
     -1.856857     19.724628     19.724628     39.449257
     -1.846847     20.281982     20.281982     40.563963
     -1.836837     20.045368     20.045368     40.090735
     -1.826827     19.235590     19.235590     38.471180
     -1.816817     18.152548     18.152548     36.305097
     -1.806807     17.074159     17.074159     34.148318
     -1.796797     16.157212     16.157212     32.314423
     -1.786787     15.384520     15.384520     30.769040
     -1.776777     14.589663     14.589663     29.179325
     -1.766767     13.553190     13.553190     27.106380
     -1.756757     12.123573     12.123573     24.247146
     -1.746747     10.301373     10.301373     20.602746
     -1.736737      8.248480      8.248480     16.496960
     -1.726727      6.229721      6.229721     12.459441
     -1.716717      4.529927      4.529927      9.059854
     -1.706707      3.393196      3.393196      6.786392
     -1.696697      3.004497      3.004497      6.008995
     -1.686687      3.498557      3.498557      6.997114
     -1.676677      4.961024      4.961024      9.922048
     -1.666667      7.394413      7.394413     14.788826
     -1.656657     10.651805     10.651805     21.303610
     -1.646647     14.376939     14.376939     28.753879
     -1.636637     18.006550     18.006550     36.013100
     -1.626627     20.872477     20.872477     41.744954
