# EIG2DOS: Utility for SIESTA to obtain the electronic density of states
#  E. Artacho, Apr 1999, A. Garcia, Apr 2012
#  Nick R. Papior, Feb 2017
# ------------------------------------------
# Eigenvalues calculated from a non-polarized calculation
# Eigenvalues read from siesta.EIG
# Kpoint weights read from siesta.KP
# Using smearing parameter:   0.0500
# Using 1000 points in the energy range
# Selected bands: 1 to: 2981
# Emin, Emax in file for selected band(s):    -27.1392959    218.3520910
# Nbands, Nspin, Nk   =   2981     1     1
# E_F                 =    -4.2492 eV --> (shifted to ZERO)
# Broadening          =     0.0500 eV
#
#        E            N(up)  (=)   N(down)         Ntot
     -5.000000     36.054387     36.054387     72.108775
     -4.989990     39.506269     39.506269     79.012539
     -4.979980     42.075432     42.075432     84.150864
     -4.969970     43.399286     43.399286     86.798572
     -4.959960     43.297970     43.297970     86.595941
     -4.949950     41.828716     41.828716     83.657431
     -4.939940     39.284653     39.284653     78.569307
     -4.929930     36.152746     36.152746     72.305492
     -4.919920     33.055244     33.055244     66.110488
     -4.909910     30.685821     30.685821     61.371642
     -4.899900     29.727054     29.727054     59.454109
     -4.889890     30.724114     30.724114     61.448229
     -4.879880     33.911099     33.911099     67.822198
     -4.869870     39.038348     39.038348     78.076697
     -4.859860     45.296506     45.296506     90.593011
     -4.849850     51.428983     51.428983    102.857967
     -4.839840     56.048711     56.048711    112.097423
     -4.829830     58.061065     58.061065    116.122129
     -4.819820     57.015552     57.015552    114.031105
     -4.809810     53.225141     53.225141    106.450282
     -4.799800     47.603613     47.603613     95.207227
     -4.789790     41.311037     41.311037     82.622073
     -4.779780     35.378846     35.378846     70.757692
     -4.769770     30.466220     30.466220     60.932440
     -4.759760     26.805854     26.805854     53.611708
     -4.749750     24.298826     24.298826     48.597652
     -4.739740     22.669980     22.669980     45.339959
     -4.729730     21.604912     21.604912     43.209825
     -4.719720     20.829338     20.829338     41.658677
     -4.709710     20.130757     20.130757     40.261514
     -4.699700     19.347524     19.347524     38.695049
     -4.689690     18.359887     18.359887     36.719773
     -4.679680     17.110300     17.110300     34.220600
     -4.669670     15.656980     15.656980     31.313960
     -4.659660     14.234995     14.234995     28.469990
     -4.649650     13.281059     13.281059     26.562118
     -4.639640     13.383931     13.383931     26.767862
     -4.629630     15.149556     15.149556     30.299113
     -4.619620     19.006102     19.006102     38.012205
     -4.609610     25.006477     25.006477     50.012953
     -4.599600     32.705031     32.705031     65.410062
     -4.589590     41.179238     41.179238     82.358476
     -4.579580     49.225077     49.225077     98.450153
     -4.569570     55.681995     55.681995    111.363990
     -4.559560     59.772523     59.772523    119.545046
     -4.549550     61.318704     61.318704    122.637408
     -4.539540     60.745828     60.745828    121.491657
     -4.529530     58.880160     58.880160    117.760320
     -4.519520     56.635573     56.635573    113.271146
     -4.509510     54.717433     54.717433    109.434865
     -4.499499     53.443511     53.443511    106.887022
     -4.489489     52.719687     52.719687    105.439374
     -4.479479     52.148454     52.148454    104.296908
     -4.469469     51.211572     51.211572    102.423144
     -4.459459     49.458146     49.458146     98.916292
     -4.449449     46.641497     46.641497     93.282994
     -4.439439     42.775840     42.775840     85.551679
     -4.429429     38.116866     38.116866     76.233732
     -4.419419     33.094708     33.094708     66.189417
     -4.409409     28.231981     28.231981     56.463962
     -4.399399     24.064425     24.064425     48.128850
     -4.389389     21.062565     21.062565     42.125130
     -4.379379     19.548485     19.548485     39.096971
     -4.369369     19.617777     19.617777     39.235554
     -4.359359     21.098110     21.098110     42.196221
     -4.349349     23.579384     23.579384     47.158768
     -4.339339     26.524875     26.524875     53.049750
     -4.329329     29.430872     29.430872     58.861744
     -4.319319     31.972057     31.972057     63.944114
     -4.309309     34.072920     34.072920     68.145841
     -4.299299     35.879791     35.879791     71.759581
     -4.289289     37.650818     37.650818     75.301636
     -4.279279     39.608523     39.608523     79.217046
     -4.269269     41.804683     41.804683     83.609366
     -4.259259     44.040696     44.040696     88.081392
     -4.249249     45.877435     45.877435     91.754870
     -4.239239     46.751547     46.751547     93.503094
     -4.229229     46.178424     46.178424     92.356848
     -4.219219     43.971196     43.971196     87.942391
     -4.209209     40.372397     40.372397     80.744794
     -4.199199     36.016954     36.016954     72.033909
     -4.189189     31.724796     31.724796     63.449592
     -4.179179     28.214769     28.214769     56.429538
     -4.169169     25.877169     25.877169     51.754339
     -4.159159     24.709116     24.709116     49.418232
     -4.149149     24.427809     24.427809     48.855619
     -4.139139     24.686846     24.686846     49.373693
     -4.129129     25.277313     25.277313     50.554626
     -4.119119     26.212017     26.212017     52.424033
     -4.109109     27.652713     27.652713     55.305426
     -4.099099     29.718920     29.718920     59.437840
     -4.089089     32.282430     32.282430     64.564860
     -4.079079     34.872521     34.872521     69.745042
     -4.069069     36.772063     36.772063     73.544127
     -4.059059     37.284468     37.284468     74.568935
     -4.049049     36.047271     36.047271     72.094543
     -4.039039     33.227752     33.227752     66.455505
     -4.029029     29.493608     29.493608     58.987215
     -4.019019     25.775783     25.775783     51.551567
     -4.009009     22.951324     22.951324     45.902647
     -3.998999     21.601833     21.601833     43.203667
     -3.988989     21.937977     21.937977     43.875953
     -3.978979     23.874879     23.874879     47.749759
     -3.968969     27.169528     27.169528     54.339056
     -3.958959     31.529354     31.529354     63.058708
     -3.948949     36.656296     36.656296     73.312591
     -3.938939     42.251218     42.251218     84.502437
     -3.928929     48.023341     48.023341     96.046682
     -3.918919     53.721201     53.721201    107.442401
     -3.908909     59.158817     59.158817    118.317634
     -3.898899     64.195757     64.195757    128.391514
     -3.888889     68.658927     68.658927    137.317854
     -3.878879     72.245168     72.245168    144.490336
     -3.868869     74.476333     74.476333    148.952665
     -3.858859     74.764925     74.764925    149.529849
     -3.848849     72.592806     72.592806    145.185613
     -3.838839     67.739471     67.739471    135.478942
     -3.828829     60.458161     60.458161    120.916322
     -3.818819     51.510548     51.510548    103.021096
     -3.808809     42.028735     42.028735     84.057470
     -3.798799     33.247181     33.247181     66.494363
     -3.788789     26.199439     26.199439     52.398878
     -3.778779     21.482100     21.482100     42.964199
     -3.768769     19.153955     19.153955     38.307911
     -3.758759     18.785231     18.785231     37.570463
     -3.748749     19.625761     19.625761     39.251522
     -3.738739     20.835968     20.835968     41.671936
     -3.728729     21.719581     21.719581     43.439162
     -3.718719     21.904233     21.904233     43.808466
     -3.708709     21.429207     21.429207     42.858414
     -3.698699     20.717228     20.717228     41.434455
     -3.688689     20.431098     20.431098     40.862196
     -3.678679     21.246344     21.246344     42.492687
     -3.668669     23.602264     23.602264     47.204527
     -3.658659     27.513190     27.513190     55.026380
     -3.648649     32.513757     32.513757     65.027514
     -3.638639     37.769121     37.769121     75.538242
     -3.628629     42.315152     42.315152     84.630303
     -3.618619     45.336204     45.336204     90.672407
     -3.608609     46.373501     46.373501     92.747002
     -3.598599     45.396513     45.396513     90.793025
     -3.588589     42.738335     42.738335     85.476670
     -3.578579     38.950213     38.950213     77.900426
     -3.568569     34.641314     34.641314     69.282628
     -3.558559     30.345629     30.345629     60.691257
     -3.548549     26.430145     26.430145     52.860289
     -3.538539     23.049690     23.049690     46.099380
     -3.528529     20.158006     20.158006     40.316012
     -3.518519     17.579632     17.579632     35.159265
     -3.508509     15.123839     15.123839     30.247677
     -3.498498     12.695767     12.695767     25.391535
     -3.488488     10.355811     10.355811     20.711621
     -3.478478      8.303450      8.303450     16.606899
     -3.468468      6.799126      6.799126     13.598253
     -3.458458      6.062090      6.062090     12.124181
     -3.448448      6.183054      6.183054     12.366108
     -3.438438      7.077053      7.077053     14.154107
     -3.428428      8.488715      8.488715     16.977430
     -3.418418     10.053179     10.053179     20.106358
     -3.408408     11.404231     11.404231     22.808462
     -3.398398     12.301914     12.301914     24.603828
     -3.388388     12.733664     12.733664     25.467328
     -3.378378     12.942653     12.942653     25.885306
     -3.368368     13.362960     13.362960     26.725919
     -3.358358     14.481653     14.481653     28.963306
     -3.348348     16.678038     16.678038     33.356077
     -3.338338     20.092293     20.092293     40.184587
     -3.328328     24.553902     24.553902     49.107805
     -3.318318     29.576497     29.576497     59.152993
     -3.308308     34.417747     34.417747     68.835494
     -3.298298     38.206718     38.206718     76.413435
     -3.288288     40.134765     40.134765     80.269531
     -3.278278     39.675736     39.675736     79.351471
     -3.268268     36.762657     36.762657     73.525313
     -3.258258     31.838805     31.838805     63.677611
     -3.248248     25.744750     25.744750     51.489500
     -3.238238     19.480963     19.480963     38.961925
     -3.228228     13.946270     13.946270     27.892540
     -3.218218      9.753861      9.753861     19.507722
     -3.208208      7.171650      7.171650     14.343301
     -3.198198      6.165754      6.165754     12.331509
     -3.188188      6.490552      6.490552     12.981105
     -3.178178      7.780214      7.780214     15.560428
     -3.168168      9.631657      9.631657     19.263314
     -3.158158     11.691576     11.691576     23.383152
     -3.148148     13.750837     13.750837     27.501674
     -3.138138     15.818716     15.818716     31.637432
     -3.128128     18.127973     18.127973     36.255947
     -3.118118     21.035744     21.035744     42.071488
     -3.108108     24.835040     24.835040     49.670081
     -3.098098     29.549248     29.549248     59.098497
     -3.088088     34.809305     34.809305     69.618610
     -3.078078     39.887706     39.887706     79.775413
     -3.068068     43.893221     43.893221     87.786442
     -3.058058     46.050707     46.050707     92.101413
     -3.048048     45.945463     45.945463     91.890926
     -3.038038     43.628449     43.628449     87.256898
     -3.028028     39.550360     39.550360     79.100720
     -3.018018     34.378251     34.378251     68.756502
     -3.008008     28.797439     28.797439     57.594878
     -2.997998     23.387416     23.387416     46.774833
     -2.987988     18.599527     18.599527     37.199055
     -2.977978     14.800942     14.800942     29.601884
     -2.967968     12.322202     12.322202     24.644404
     -2.957958     11.460573     11.460573     22.921146
     -2.947948     12.427475     12.427475     24.854950
     -2.937938     15.260604     15.260604     30.521208
     -2.927928     19.739265     19.739265     39.478530
     -2.917918     25.345854     25.345854     50.691708
     -2.907908     31.308508     31.308508     62.617016
     -2.897898     36.736841     36.736841     73.473682
     -2.887888     40.825429     40.825429     81.650859
     -2.877878     43.061413     43.061413     86.122826
     -2.867868     43.355291     43.355291     86.710583
     -2.857858     42.034371     42.034371     84.068742
     -2.847848     39.693533     39.693533     79.387067
     -2.837838     36.963118     36.963118     73.926236
     -2.827828     34.294229     34.294229     68.588458
     -2.817818     31.853523     31.853523     63.707045
     -2.807808     29.564140     29.564140     59.128281
     -2.797798     27.255380     27.255380     54.510760
     -2.787788     24.831050     24.831050     49.662101
     -2.777778     22.364076     22.364076     44.728151
     -2.767768     20.073403     20.073403     40.146807
     -2.757758     18.210158     18.210158     36.420317
     -2.747748     16.931717     16.931717     33.863434
     -2.737738     16.244389     16.244389     32.488778
     -2.727728     16.046652     16.046652     32.093304
     -2.717718     16.236047     16.236047     32.472094
     -2.707708     16.798823     16.798823     33.597645
     -2.697698     17.812956     17.812956     35.625911
     -2.687688     19.356867     19.356867     38.713734
     -2.677678     21.387102     21.387102     42.774203
     -2.667668     23.677916     23.677916     47.355833
     -2.657658     25.879545     25.879545     51.759090
     -2.647648     27.671342     27.671342     55.342684
     -2.637638     28.916800     28.916800     57.833600
     -2.627628     29.720620     29.720620     59.441240
     -2.617618     30.350942     30.350942     60.701883
     -2.607608     31.077921     31.077921     62.155841
     -2.597598     32.028948     32.028948     64.057896
     -2.587588     33.137431     33.137431     66.274862
     -2.577578     34.189990     34.189990     68.379980
     -2.567568     34.916173     34.916173     69.832346
     -2.557558     35.060144     35.060144     70.120289
     -2.547548     34.417930     34.417930     68.835861
     -2.537538     32.867981     32.867981     65.735962
     -2.527528     30.424151     30.424151     60.848302
     -2.517518     27.300344     27.300344     54.600688
     -2.507508     23.936397     23.936397     47.872795
     -2.497497     20.935893     20.935893     41.871785
     -2.487487     18.912315     18.912315     37.824630
     -2.477477     18.297582     18.297582     36.595164
     -2.467467     19.196846     19.196846     38.393693
     -2.457457     21.357967     21.357967     42.715934
     -2.447447     24.273672     24.273672     48.547343
     -2.437437     27.375405     27.375405     54.750810
     -2.427427     30.236688     30.236688     60.473376
     -2.417417     32.697887     32.697887     65.395775
     -2.407407     34.856915     34.856915     69.713830
     -2.397397     36.929242     36.929242     73.858484
     -2.387387     39.041681     39.041681     78.083363
     -2.377377     41.060771     41.060771     82.121543
     -2.367367     42.549288     42.549288     85.098576
     -2.357357     42.890680     42.890680     85.781361
     -2.347347     41.540216     41.540216     83.080433
     -2.337337     38.291979     38.291979     76.583957
     -2.327327     33.433916     33.433916     66.867833
     -2.317317     27.714812     27.714812     55.429625
     -2.307307     22.140125     22.140125     44.280249
     -2.297297     17.692239     17.692239     35.384477
     -2.287287     15.090063     15.090063     30.180126
     -2.277277     14.661820     14.661820     29.323639
     -2.267267     16.340488     16.340488     32.680977
     -2.257257     19.745223     19.745223     39.490447
     -2.247247     24.300067     24.300067     48.600135
     -2.237237     29.352203     29.352203     58.704407
     -2.227227     34.267470     34.267470     68.534941
     -2.217217     38.492967     38.492967     76.985933
     -2.207207     41.587993     41.587993     83.175986
     -2.197197     43.237210     43.237210     86.474420
     -2.187187     43.267079     43.267079     86.534157
     -2.177177     41.678174     41.678174     83.356349
     -2.167167     38.681094     38.681094     77.362188
     -2.157157     34.698917     34.698917     69.397835
     -2.147147     30.298952     30.298952     60.597904
     -2.137137     26.051481     26.051481     52.102961
     -2.127127     22.364826     22.364826     44.729651
     -2.117117     19.375823     19.375823     38.751646
     -2.107107     16.954701     16.954701     33.909401
     -2.097097     14.821753     14.821753     29.643506
     -2.087087     12.710976     12.710976     25.421952
     -2.077077     10.495063     10.495063     20.990126
     -2.067067      8.217866      8.217866     16.435732
     -2.057057      6.038528      6.038528     12.077056
     -2.047047      4.136023      4.136023      8.272047
     -2.037037      2.630062      2.630062      5.260124
     -2.027027      1.549564      1.549564      3.099127
     -2.017017      0.846805      0.846805      1.693610
     -2.007007      0.435192      0.435192      0.870383
     -1.996997      0.227515      0.227515      0.455030
     -1.986987      0.162283      0.162283      0.324566
     -1.976977      0.217119      0.217119      0.434239
     -1.966967      0.413495      0.413495      0.826991
     -1.956957      0.815611      0.815611      1.631222
     -1.946947      1.521684      1.521684      3.043368
     -1.936937      2.643059      2.643059      5.286118
     -1.926927      4.269210      4.269210      8.538420
     -1.916917      6.425212      6.425212     12.850424
     -1.906907      9.038145      9.038145     18.076290
     -1.896897     11.932228     11.932228     23.864456
     -1.886887     14.863576     14.863576     29.727153
     -1.876877     17.586610     17.586610     35.173220
     -1.866867     19.926169     19.926169     39.852337
     -1.856857     21.823797     21.823797     43.647594
     -1.846847     23.336719     23.336719     46.673438
     -1.836837     24.587281     24.587281     49.174563
     -1.826827     25.680190     25.680190     51.360380
     -1.816817     26.619373     26.619373     53.238745
     -1.806807     27.262520     27.262520     54.525040
     -1.796797     27.343553     27.343553     54.687106
     -1.786787     26.566941     26.566941     53.133882
     -1.776777     24.740045     24.740045     49.480091
     -1.766767     21.882155     21.882155     43.764309
     -1.756757     18.253878     18.253878     36.507755
     -1.746747     14.290105     14.290105     28.580211
     -1.736737     10.470394     10.470394     20.940788
     -1.726727      7.189919      7.189919     14.379838
     -1.716717      4.685700      4.685700      9.371399
     -1.706707      3.036317      3.036317      6.072635
     -1.696697      2.214164      2.214164      4.428327
     -1.686687      2.148654      2.148654      4.297309
     -1.676677      2.762918      2.762918      5.525837
     -1.666667      3.968093      3.968093      7.936187
     -1.656657      5.626288      5.626288     11.252575
     -1.646647      7.513742      7.513742     15.027484
     -1.636637      9.320310      9.320310     18.640620
     -1.626627     10.705647     10.705647     21.411294
