# EIG2DOS: Utility for SIESTA to obtain the electronic density of states
#  E. Artacho, Apr 1999, A. Garcia, Apr 2012
#  Nick R. Papior, Feb 2017
# ------------------------------------------
# Eigenvalues calculated from a non-polarized calculation
# Eigenvalues read from siesta.EIG
# Kpoint weights read from siesta.KP
# Using smearing parameter:   0.0500
# Using 1000 points in the energy range
# Selected bands: 1 to: 2981
# Emin, Emax in file for selected band(s):    -27.3532810    218.4007250
# Nbands, Nspin, Nk   =   2981     1     1
# E_F                 =    -4.1986 eV --> (shifted to ZERO)
# Broadening          =     0.0500 eV
#
#        E            N(up)  (=)   N(down)         Ntot
     -5.000000     30.580968     30.580968     61.161937
     -4.989990     35.567163     35.567163     71.134326
     -4.979980     40.463103     40.463103     80.926207
     -4.969970     44.456953     44.456953     88.913905
     -4.959960     46.797175     46.797175     93.594350
     -4.949950     47.039107     47.039107     94.078213
     -4.939940     45.200490     45.200490     90.400981
     -4.929930     41.773157     41.773157     83.546314
     -4.919920     37.605220     37.605220     75.210440
     -4.909910     33.712351     33.712351     67.424702
     -4.899900     31.075807     31.075807     62.151615
     -4.889890     30.455012     30.455012     60.910023
     -4.879880     32.221916     32.221916     64.443832
     -4.869870     36.236679     36.236679     72.473358
     -4.859860     41.814181     41.814181     83.628361
     -4.849850     47.837682     47.837682     95.675364
     -4.839840     53.031767     53.031767    106.063535
     -4.829830     56.326272     56.326272    112.652543
     -4.819820     57.176680     57.176680    114.353360
     -4.809810     55.704104     55.704104    111.408208
     -4.799800     52.591061     52.591061    105.182122
     -4.789790     48.781256     48.781256     97.562513
     -4.779780     45.120515     45.120515     90.241030
     -4.769770     42.093547     42.093547     84.187094
     -4.759760     39.751573     39.751573     79.503147
     -4.749750     37.826458     37.826458     75.652915
     -4.739740     35.943227     35.943227     71.886453
     -4.729730     33.814851     33.814851     67.629702
     -4.719720     31.336378     31.336378     62.672756
     -4.709710     28.563710     28.563710     57.127419
     -4.699700     25.625620     25.625620     51.251240
     -4.689690     22.643830     22.643830     45.287661
     -4.679680     19.715845     19.715845     39.431691
     -4.669670     16.965657     16.965657     33.931315
     -4.659660     14.620552     14.620552     29.241105
     -4.649650     13.054562     13.054562     26.109124
     -4.639640     12.755668     12.755668     25.511336
     -4.629630     14.209454     14.209454     28.418908
     -4.619620     17.727393     17.727393     35.454787
     -4.609610     23.273659     23.273659     46.547319
     -4.599600     30.357800     30.357800     60.715600
     -4.589590     38.056205     38.056205     76.112409
     -4.579580     45.192747     45.192747     90.385494
     -4.569570     50.647594     50.647594    101.295187
     -4.559560     53.695306     53.695306    107.390613
     -4.549550     54.238179     54.238179    108.476357
     -4.539540     52.827805     52.827805    105.655609
     -4.529530     50.452423     50.452423    100.904845
     -4.519520     48.169674     48.169674     96.339349
     -4.509510     46.732501     46.732501     93.465001
     -4.499499     46.356469     46.356469     92.712938
     -4.489489     46.711098     46.711098     93.422195
     -4.479479     47.118685     47.118685     94.237371
     -4.469469     46.858986     46.858986     93.717972
     -4.459459     45.445044     45.445044     90.890088
     -4.449449     42.766045     42.766045     85.532090
     -4.439439     39.066990     39.066990     78.133979
     -4.429429     34.812235     34.812235     69.624471
     -4.419419     30.521418     30.521418     61.042836
     -4.409409     26.654488     26.654488     53.308976
     -4.399399     23.570939     23.570939     47.141879
     -4.389389     21.533586     21.533586     43.067172
     -4.379379     20.706432     20.706432     41.412863
     -4.369369     21.120653     21.120653     42.241305
     -4.359359     22.629581     22.629581     45.259161
     -4.349349     24.902940     24.902940     49.805881
     -4.339339     27.497330     27.497330     54.994660
     -4.329329     29.992873     29.992873     59.985746
     -4.319319     32.139335     32.139335     64.278671
     -4.309309     33.940494     33.940494     67.880987
     -4.299299     35.630282     35.630282     71.260563
     -4.289289     37.541203     37.541203     75.082406
     -4.279279     39.911106     39.911106     79.822212
     -4.269269     42.703414     42.703414     85.406827
     -4.259259     45.521420     45.521420     91.042839
     -4.249249     47.673764     47.673764     95.347527
     -4.239239     48.393112     48.393112     96.786223
     -4.229229     47.136737     47.136737     94.273474
     -4.219219     43.841636     43.841636     87.683272
     -4.209209     39.008733     39.008733     78.017466
     -4.199199     33.563218     33.563218     67.126436
     -4.189189     28.547003     28.547003     57.094005
     -4.179179     24.781650     24.781650     49.563299
     -4.169169     22.648000     22.648000     45.296001
     -4.159159     22.061887     22.061887     44.123775
     -4.149149     22.627522     22.627522     45.255045
     -4.139139     23.874948     23.874948     47.749895
     -4.129129     25.465618     25.465618     50.931237
     -4.119119     27.279115     27.279115     54.558230
     -4.109109     29.353734     29.353734     58.707467
     -4.099099     31.720946     31.720946     63.441891
     -4.089089     34.226449     34.226449     68.452898
     -4.079079     36.445960     36.445960     72.891919
     -4.069069     37.765502     37.765502     75.531004
     -4.059059     37.611185     37.611185     75.222371
     -4.049049     35.723787     35.723787     71.447574
     -4.039039     32.335487     32.335487     64.670974
     -4.029029     28.150566     28.150566     56.301132
     -4.019019     24.135160     24.135160     48.270320
     -4.009009     21.218636     21.218636     42.437271
     -3.998999     20.042130     20.042130     40.084261
     -3.988989     20.846155     20.846155     41.692310
     -3.978979     23.506298     23.506298     47.012596
     -3.968969     27.658666     27.658666     55.317331
     -3.958959     32.838813     32.838813     65.677627
     -3.948949     38.585667     38.585667     77.171334
     -3.938939     44.503405     44.503405     89.006811
     -3.928929     50.296129     50.296129    100.592258
     -3.918919     55.782234     55.782234    111.564468
     -3.908909     60.875965     60.875965    121.751929
     -3.898899     65.521017     65.521017    131.042034
     -3.888889     69.586865     69.586865    139.173730
     -3.878879     72.775411     72.775411    145.550821
     -3.868869     74.601659     74.601659    149.203317
     -3.858859     74.487814     74.487814    148.975628
     -3.848849     71.954672     71.954672    143.909344
     -3.838839     66.838886     66.838886    133.677771
     -3.828829     59.441799     59.441799    118.883598
     -3.818819     50.538191     50.538191    101.076382
     -3.808809     41.229759     41.229759     82.459518
     -3.798799     32.690103     32.690103     65.380207
     -3.788789     25.886843     25.886843     51.773686
     -3.778779     21.368280     21.368280     42.736561
     -3.768769     19.172117     19.172117     38.344235
     -3.758759     18.870301     18.870301     37.740603
     -3.748749     19.725664     19.725664     39.451328
     -3.738739     20.912402     20.912402     41.824804
     -3.728729     21.744006     21.744006     43.488012
     -3.718719     21.854938     21.854938     43.709876
     -3.708709     21.292680     21.292680     42.585359
     -3.698699     20.493902     20.493902     40.987804
     -3.688689     20.142790     20.142790     40.285579
     -3.678679     20.940591     20.940591     41.881183
     -3.668669     23.348072     23.348072     46.696145
     -3.658659     27.384836     27.384836     54.769673
     -3.648649     32.565099     32.565099     65.130199
     -3.638639     38.008073     38.008073     76.016147
     -3.628629     42.691683     42.691683     85.383366
     -3.618619     45.753146     45.753146     91.506291
     -3.608609     46.718300     46.718300     93.436600
     -3.598599     45.580302     45.580302     91.160605
     -3.588589     42.724316     42.724316     85.448631
     -3.578579     38.759482     38.759482     77.518965
     -3.568569     34.336855     34.336855     68.673710
     -3.558559     30.005792     30.005792     60.011583
     -3.548549     26.125546     26.125546     52.251093
     -3.538539     22.832263     22.832263     45.664525
     -3.528529     20.063316     20.063316     40.126631
     -3.518519     17.639219     17.639219     35.278438
     -3.508509     15.384501     15.384501     30.769001
     -3.498498     13.244184     13.244184     26.488368
     -3.488488     11.345188     11.345188     22.690376
     -3.478478      9.972793      9.972793     19.945586
     -3.468468      9.469111      9.469111     18.938222
     -3.458458     10.091313     10.091313     20.182625
     -3.448448     11.880100     11.880100     23.760199
     -3.438438     14.585914     14.585914     29.171827
     -3.428428     17.687474     17.687474     35.374948
     -3.418418     20.513624     20.513624     41.027247
     -3.408408     22.442966     22.442966     44.885932
     -3.398398     23.115873     23.115873     46.231746
     -3.388388     22.573641     22.573641     45.147282
     -3.378378     21.260723     21.260723     42.521445
     -3.368368     19.884647     19.884647     39.769294
     -3.358358     19.192566     19.192566     38.385133
     -3.348348     19.754159     19.754159     39.508318
     -3.338338     21.821359     21.821359     43.642718
     -3.328328     25.285360     25.285360     50.570719
     -3.318318     29.709758     29.709758     59.419517
     -3.308308     34.411906     34.411906     68.823811
     -3.298298     38.583748     38.583748     77.167495
     -3.288288     41.454341     41.454341     82.908682
     -3.278278     42.474399     42.474399     84.948798
     -3.268268     41.463341     41.463341     82.926681
     -3.258258     38.645698     38.645698     77.291397
     -3.248248     34.546191     34.546191     69.092383
     -3.238238     29.790506     29.790506     59.581012
     -3.228228     24.913107     24.913107     49.826215
     -3.218218     20.260331     20.260331     40.520663
     -3.208208     16.008313     16.008313     32.016626
     -3.198198     12.246545     12.246545     24.493090
     -3.188188      9.057254      9.057254     18.114508
     -3.178178      6.550943      6.550943     13.101885
     -3.168168      4.862937      4.862937      9.725875
     -3.158158      4.137079      4.137079      8.274157
     -3.148148      4.512011      4.512011      9.024022
     -3.138138      6.102204      6.102204     12.204408
     -3.128128      8.955586      8.955586     17.911173
     -3.118118     12.983793     12.983793     25.967586
     -3.108108     17.890323     17.890323     35.780647
     -3.098098     23.144246     23.144246     46.288491
     -3.088088     28.041872     28.041872     56.083743
     -3.078078     31.860900     31.860900     63.721800
     -3.068068     34.058103     34.058103     68.116205
     -3.058058     34.425354     34.425354     68.850707
     -3.048048     33.127931     33.127931     66.255863
     -3.038038     30.605446     30.605446     61.210893
     -3.028028     27.388566     27.388566     54.777132
     -3.018018     23.928003     23.928003     47.856006
     -3.008008     20.517496     20.517496     41.034992
     -2.997998     17.330448     17.330448     34.660897
     -2.987988     14.522889     14.522889     29.045779
     -2.977978     12.325444     12.325444     24.650889
     -2.967968     11.065694     11.065694     22.131388
     -2.957958     11.107940     11.107940     22.215880
     -2.947948     12.737904     12.737904     25.475808
     -2.937938     16.037995     16.037995     32.075990
     -2.927928     20.797823     20.797823     41.595647
     -2.917918     26.494891     26.494891     52.989781
     -2.907908     32.365322     32.365322     64.730644
     -2.897898     37.560433     37.560433     75.120865
     -2.887888     41.352143     41.352143     82.704286
     -2.877878     43.320950     43.320950     86.641900
     -2.867868     43.453464     43.453464     86.906928
     -2.857858     42.104459     42.104459     84.208917
     -2.847848     39.834099     39.834099     79.668199
     -2.837838     37.188756     37.188756     74.377512
     -2.827828     34.522052     34.522052     69.044104
     -2.817818     31.933140     31.933140     63.866281
     -2.807808     29.339079     29.339079     58.678158
     -2.797798     26.629190     26.629190     53.258381
     -2.787788     23.809480     23.809480     47.618960
     -2.777778     21.056937     21.056937     42.113874
     -2.767768     18.659505     18.659505     37.319011
     -2.757758     16.885038     16.885038     33.770075
     -2.747748     15.862339     15.862339     31.724678
     -2.737738     15.546195     15.546195     31.092390
     -2.727728     15.782814     15.782814     31.565628
     -2.717718     16.426299     16.426299     32.852597
     -2.707708     17.422958     17.422958     34.845915
     -2.697698     18.802747     18.802747     37.605493
     -2.687688     20.583789     20.583789     41.167578
     -2.677678     22.662426     22.662426     45.324852
     -2.667668     24.779002     24.779002     49.558005
     -2.657658     26.601391     26.601391     53.202783
     -2.647648     27.884616     27.884616     55.769232
     -2.637638     28.605498     28.605498     57.210997
     -2.627628     28.981354     28.981354     57.962708
     -2.617618     29.356203     29.356203     58.712407
     -2.607608     30.023097     30.023097     60.046194
     -2.597598     31.085621     31.085621     62.171241
     -2.587588     32.424508     32.424508     64.849016
     -2.577578     33.761038     33.761038     67.522075
     -2.567568     34.756819     34.756819     69.513638
     -2.557558     35.094002     35.094002     70.188005
     -2.547548     34.524456     34.524456     69.048912
     -2.537538     32.913360     32.913360     65.826720
     -2.527528     30.297992     30.297992     60.595984
     -2.517518     26.944933     26.944933     53.889866
     -2.507508     23.358129     23.358129     46.716259
     -2.497497     20.198483     20.198483     40.396966
     -2.487487     18.120296     18.120296     36.240591
     -2.477477     17.579640     17.579640     35.159281
     -2.467467     18.692216     18.692216     37.384431
     -2.457457     21.202170     21.202170     42.404340
     -2.447447     24.578939     24.578939     49.157877
     -2.437437     28.206445     28.206445     56.412890
     -2.427427     31.588727     31.588727     63.177454
     -2.417417     34.485164     34.485164     68.970329
     -2.407407     36.915593     36.915593     73.831187
     -2.397397     39.033625     39.033625     78.067251
     -2.387387     40.931435     40.931435     81.862871
     -2.377377     42.478839     42.478839     84.957678
     -2.367367     43.289833     43.289833     86.579666
     -2.357357     42.849833     42.849833     85.699666
     -2.347347     40.753161     40.753161     81.506323
     -2.337337     36.937340     36.937340     73.874679
     -2.327327     31.796512     31.796512     63.593025
     -2.317317     26.116525     26.116525     52.233050
     -2.307307     20.863626     20.863626     41.727252
     -2.297297     16.923866     16.923866     33.847731
     -2.287287     14.896705     14.896705     29.793410
     -2.277277     15.001305     15.001305     30.002611
     -2.267267     17.094413     17.094413     34.188825
     -2.257257     20.759818     20.759818     41.519635
     -2.247247     25.422058     25.422058     50.844116
     -2.237237     30.450353     30.450353     60.900706
     -2.227227     35.236718     35.236718     70.473436
     -2.217217     39.246343     39.246343     78.492687
     -2.207207     42.048269     42.048269     84.096539
     -2.197197     43.340650     43.340650     86.681301
     -2.187187     42.984314     42.984314     85.968628
     -2.177177     41.046279     41.046279     82.092558
     -2.167167     37.833584     37.833584     75.667167
     -2.157157     33.880826     33.880826     67.761652
     -2.147147     29.860656     29.860656     59.721312
     -2.137137     26.421383     26.421383     52.842766
     -2.127127     24.002405     24.002405     48.004810
     -2.117117     22.704032     22.704032     45.408065
     -2.107107     22.271660     22.271660     44.543320
     -2.097097     22.202723     22.202723     44.405447
     -2.087087     21.929928     21.929928     43.859856
     -2.077077     21.006610     21.006610     42.013220
     -2.067067     19.229250     19.229250     38.458500
     -2.057057     16.665785     16.665785     33.331570
     -2.047047     13.596416     13.596416     27.192832
     -2.037037     10.401325     10.401325     20.802650
     -2.027027      7.440872      7.440872     14.881744
     -2.017017      4.968039      4.968039      9.936079
     -2.007007      3.094280      3.094280      6.188560
     -1.996997      1.806886      1.806886      3.613772
     -1.986987      1.018711      1.018711      2.037421
     -1.976977      0.625796      0.625796      1.251592
     -1.966967      0.554052      0.554052      1.108104
     -1.956957      0.785719      0.785719      1.571438
     -1.946947      1.363338      1.363338      2.726677
     -1.936937      2.371652      2.371652      4.743304
     -1.926927      3.899527      3.899527      7.799054
     -1.916917      5.988750      5.988750     11.977499
     -1.906907      8.584338      8.584338     17.168675
     -1.896897     11.506655     11.506655     23.013310
     -1.886887     14.462455     14.462455     28.924910
     -1.876877     17.098604     17.098604     34.197207
     -1.866867     19.084821     19.084821     38.169643
     -1.856857     20.199785     20.199785     40.399569
     -1.846847     20.393107     20.393107     40.786214
     -1.836837     19.802003     19.802003     39.604006
     -1.826827     18.712020     18.712020     37.424039
     -1.816817     17.466237     17.466237     34.932475
     -1.806807     16.347758     16.347758     32.695516
     -1.796797     15.479599     15.479599     30.959198
     -1.786787     14.789153     14.789153     29.578305
     -1.776777     14.059947     14.059947     28.119894
     -1.766767     13.049352     13.049352     26.098704
     -1.756757     11.613866     11.613866     23.227733
     -1.746747      9.779983      9.779983     19.559965
     -1.736737      7.732153      7.732153     15.464307
     -1.726727      5.736932      5.736932     11.473865
     -1.716717      4.052397      4.052397      8.104793
     -1.706707      2.868036      2.868036      5.736072
     -1.696697      2.290852      2.290852      4.581703
     -1.686687      2.361534      2.361534      4.723068
     -1.676677      3.070355      3.070355      6.140710
     -1.666667      4.351466      4.351466      8.702933
     -1.656657      6.058111      6.058111     12.116222
     -1.646647      7.943907      7.943907     15.887813
     -1.636637      9.681744      9.681744     19.363489
     -1.626627     10.935750     10.935750     21.871500
