# EIG2DOS: Utility for SIESTA to obtain the electronic density of states
#  E. Artacho, Apr 1999, A. Garcia, Apr 2012
#  Nick R. Papior, Feb 2017
# ------------------------------------------
# Eigenvalues calculated from a non-polarized calculation
# Eigenvalues read from siesta.EIG
# Kpoint weights read from siesta.KP
# Using smearing parameter:   0.0500
# Using 1000 points in the energy range
# Selected bands: 1 to: 2981
# Emin, Emax in file for selected band(s):    -27.0498889    218.3090780
# Nbands, Nspin, Nk   =   2981     1     1
# E_F                 =    -4.3062 eV --> (shifted to ZERO)
# Broadening          =     0.0500 eV
#
#        E            N(up)  (=)   N(down)         Ntot
     -5.000000     46.155500     46.155500     92.311000
     -4.989990     48.566929     48.566929     97.133857
     -4.979980     49.511325     49.511325     99.022650
     -4.969970     49.039451     49.039451     98.078902
     -4.959960     47.346322     47.346322     94.692644
     -4.949950     44.709561     44.709561     89.419123
     -4.939940     41.449864     41.449864     82.899729
     -4.929930     37.927871     37.927871     75.855743
     -4.919920     34.567948     34.567948     69.135897
     -4.909910     31.880379     31.880379     63.760759
     -4.899900     30.443871     30.443871     60.887741
     -4.889890     30.813979     30.813979     61.627958
     -4.879880     33.348908     33.348908     66.697817
     -4.869870     37.995399     37.995399     75.990799
     -4.859860     44.133937     44.133937     88.267873
     -4.849850     50.600273     50.600273    101.200546
     -4.839840     55.942971     55.942971    111.885943
     -4.829830     58.856221     58.856221    117.712441
     -4.819820     58.612516     58.612516    117.225032
     -4.809810     55.293882     55.293882    110.587763
     -4.799800     49.713866     49.713866     99.427732
     -4.789790     43.081957     43.081957     86.163913
     -4.779780     36.584791     36.584791     73.169581
     -4.769770     31.070603     31.070603     62.141207
     -4.759760     26.932856     26.932856     53.865712
     -4.749750     24.170905     24.170905     48.341811
     -4.739740     22.536275     22.536275     45.072550
     -4.729730     21.675834     21.675834     43.351667
     -4.719720     21.227781     21.227781     42.455561
     -4.709710     20.869683     20.869683     41.739365
     -4.699700     20.339028     20.339028     40.678055
     -4.689690     19.449099     19.449099     38.898198
     -4.679680     18.115512     18.115512     36.231024
     -4.669670     16.395320     16.395320     32.790639
     -4.659660     14.524441     14.524441     29.048881
     -4.649650     12.927942     12.927942     25.855885
     -4.639640     12.178954     12.178954     24.357909
     -4.629630     12.895336     12.895336     25.790671
     -4.619620     15.582227     15.582227     31.164454
     -4.609610     20.449278     20.449278     40.898557
     -4.599600     27.253333     27.253333     54.506665
     -4.589590     35.234897     35.234897     70.469795
     -4.579580     43.211967     43.211967     86.423933
     -4.569570     49.849774     49.849774     99.699547
     -4.559560     54.045216     54.045216    108.090431
     -4.549550     55.289043     55.289043    110.578087
     -4.539540     53.849442     53.849442    107.698883
     -4.529530     50.682990     50.682990    101.365980
     -4.519520     47.097745     47.097745     94.195490
     -4.509510     44.304943     44.304943     88.609887
     -4.499499     43.040295     43.040295     86.080591
     -4.489489     43.393462     43.393462     86.786923
     -4.479479     44.883817     44.883817     89.767634
     -4.469469     46.716837     46.716837     93.433673
     -4.459459     48.095827     48.095827     96.191654
     -4.449449     48.466310     48.466310     96.932619
     -4.439439     47.622063     47.622063     95.244126
     -4.429429     45.671871     45.671871     91.343742
     -4.419419     42.922125     42.922125     85.844251
     -4.409409     39.750548     39.750548     79.501096
     -4.399399     36.525635     36.525635     73.051269
     -4.389389     33.580437     33.580437     67.160874
     -4.379379     31.208353     31.208353     62.416706
     -4.369369     29.640372     29.640372     59.280743
     -4.359359     28.992348     28.992348     57.984696
     -4.349349     29.212564     29.212564     58.425127
     -4.339339     30.078045     30.078045     60.156089
     -4.329329     31.265254     31.265254     62.530508
     -4.319319     32.473056     32.473056     64.946111
     -4.309309     33.539626     33.539626     67.079253
     -4.299299     34.495963     34.495963     68.991926
     -4.289289     35.532202     35.532202     71.064404
     -4.279279     36.892810     36.892810     73.785621
     -4.269269     38.740495     38.740495     77.480990
     -4.259259     41.034692     41.034692     82.069384
     -4.249249     43.469156     43.469156     86.938313
     -4.239239     45.506705     45.506705     91.013410
     -4.229229     46.525510     46.525510     93.051020
     -4.219219     46.042541     46.042541     92.085081
     -4.209209     43.924810     43.924810     87.849621
     -4.199199     40.480113     40.480113     80.960227
     -4.189189     36.365809     36.365809     72.731617
     -4.179179     32.349558     32.349558     64.699116
     -4.169169     29.039535     29.039535     58.079071
     -4.159159     26.716212     26.716212     53.432424
     -4.149149     25.335076     25.335076     50.670151
     -4.139139     24.674007     24.674007     49.348014
     -4.129129     24.529221     24.529221     49.058442
     -4.119119     24.851245     24.851245     49.702490
     -4.109109     25.751864     25.751864     51.503727
     -4.099099     27.379668     27.379668     54.759337
     -4.089089     29.729588     29.729588     59.459175
     -4.079079     32.494837     32.494837     64.989674
     -4.069069     35.063142     35.063142     70.126283
     -4.059059     36.692719     36.692719     73.385437
     -4.049049     36.802506     36.802506     73.605011
     -4.039039     35.234065     35.234065     70.468131
     -4.029029     32.345361     32.345361     64.690722
     -4.019019     28.886135     28.886135     57.772269
     -4.009009     25.726010     25.726010     51.452020
     -3.998999     23.579923     23.579923     47.159845
     -3.988989     22.855844     22.855844     45.711687
     -3.978979     23.658717     23.658717     47.317435
     -3.968969     25.890995     25.890995     51.781990
     -3.958959     29.356108     29.356108     58.712216
     -3.948949     33.808013     33.808013     67.616026
     -3.938939     38.956013     38.956013     77.912026
     -3.928929     44.472969     44.472969     88.945938
     -3.918919     50.039894     50.039894    100.079788
     -3.908909     55.410843     55.410843    110.821685
     -3.898899     60.444809     60.444809    120.889619
     -3.888889     65.059789     65.059789    130.119579
     -3.878879     69.115271     69.115271    138.230542
     -3.868869     72.288590     72.288590    144.577179
     -3.858859     74.036085     74.036085    148.072171
     -3.848849     73.699547     73.699547    147.399095
     -3.838839     70.742846     70.742846    141.485691
     -3.828829     65.023210     65.023210    130.046419
     -3.818819     56.965157     56.965157    113.930314
     -3.808809     47.539487     47.539487     95.078974
     -3.798799     38.039321     38.039321     76.078642
     -3.788789     29.739023     29.739023     59.478046
     -3.778779     23.567750     23.567750     47.135500
     -3.768769     19.909010     19.909010     39.818019
     -3.758759     18.573619     18.573619     37.147237
     -3.748749     18.927144     18.927144     37.854288
     -3.738739     20.113235     20.113235     40.226471
     -3.728729     21.304981     21.304981     42.609962
     -3.718719     21.924825     21.924825     43.849650
     -3.708709     21.786947     21.786947     43.573894
     -3.698699     21.130475     21.130475     42.260951
     -3.688689     20.530853     20.530853     41.061706
     -3.678679     20.703798     20.703798     41.407595
     -3.668669     22.249835     22.249835     44.499669
     -3.658659     25.417068     25.417068     50.834136
     -3.648649     29.968789     29.968789     59.937577
     -3.638639     35.215765     35.215765     70.431530
     -3.628629     40.211344     40.211344     80.422689
     -3.618619     44.035858     44.035858     88.071716
     -3.608609     46.055489     46.055489     92.110978
     -3.598599     46.058109     46.058109     92.116217
     -3.588589     44.235499     44.235499     88.470998
     -3.578579     41.054010     41.054010     82.108020
     -3.568569     37.088997     37.088997     74.177994
     -3.558559     32.882254     32.882254     65.764507
     -3.548549     28.844636     28.844636     57.689271
     -3.538539     25.203743     25.203743     50.407486
     -3.528529     21.997714     21.997714     43.995427
     -3.518519     19.121002     19.121002     38.242005
     -3.508509     16.415927     16.415927     32.831855
     -3.498498     13.778537     13.778537     27.557074
     -3.488488     11.232679     11.232679     22.465358
     -3.478478      8.939193      8.939193     17.878385
     -3.468468      7.140329      7.140329     14.280659
     -3.458458      6.068773      6.068773     12.137546
     -3.448448      5.858829      5.858829     11.717657
     -3.438438      6.487534      6.487534     12.975068
     -3.428428      7.760296      7.760296     15.520591
     -3.418418      9.347633      9.347633     18.695265
     -3.408408     10.871813     10.871813     21.743626
     -3.398398     12.026227     12.026227     24.052455
     -3.388388     12.689254     12.689254     25.378509
     -3.378378     12.984160     12.984160     25.968320
     -3.368368     13.252179     13.252179     26.504359
     -3.358358     13.944074     13.944074     27.888149
     -3.348348     15.473113     15.473113     30.946227
     -3.338338     18.084224     18.084224     36.168448
     -3.328328     21.774289     21.774289     43.548578
     -3.318318     26.267060     26.267060     52.534120
     -3.308308     31.031058     31.031058     62.062115
     -3.298298     35.339489     35.339489     70.678977
     -3.288288     38.387420     38.387420     76.774840
     -3.278278     39.472090     39.472090     78.944181
     -3.268268     38.199523     38.199523     76.399045
     -3.258258     34.635546     34.635546     69.271092
     -3.248248     29.317821     29.317821     58.635641
     -3.238238     23.103960     23.103960     46.207919
     -3.228228     16.915461     16.915461     33.830921
     -3.218218     11.489498     11.489498     22.978996
     -3.208208      7.236521      7.236521     14.473042
     -3.198198      4.236898      4.236898      8.473795
     -3.188188      2.341987      2.341987      4.683974
     -3.178178      1.312963      1.312963      2.625926
     -3.168168      0.940334      0.940334      1.880668
     -3.158158      1.117120      1.117120      2.234239
     -3.148148      1.864006      1.864006      3.728011
     -3.138138      3.314148      3.314148      6.628295
     -3.128128      5.663415      5.663415     11.326830
     -3.118118      9.090587      9.090587     18.181173
     -3.108108     13.659495     13.659495     27.318990
     -3.098098     19.229549     19.229549     38.459098
     -3.088088     25.411518     25.411518     50.823037
     -3.078078     31.599333     31.599333     63.198666
     -3.068068     37.081914     37.081914     74.163827
     -3.058058     41.202523     41.202523     82.405046
     -3.048048     43.508133     43.508133     87.016267
     -3.038038     43.835573     43.835573     87.671146
     -3.028028     42.314208     42.314208     84.628415
     -3.018018     39.305660     39.305660     78.611320
     -3.008008     35.322525     35.322525     70.645050
     -2.997998     30.958213     30.958213     61.916425
     -2.987988     26.831704     26.831704     53.663408
     -2.977978     23.530484     23.530484     47.060968
     -2.967968     21.539188     21.539188     43.078376
     -2.957958     21.163656     21.163656     42.327313
     -2.947948     22.477101     22.477101     44.954203
     -2.937938     25.309979     25.309979     50.619958
     -2.927928     29.282910     29.282910     58.565819
     -2.917918     33.864098     33.864098     67.728197
     -2.907908     38.435191     38.435191     76.870383
     -2.897898     42.366551     42.366551     84.733102
     -2.887888     45.112184     45.112184     90.224367
     -2.877878     46.320168     46.320168     92.640336
     -2.867868     45.924923     45.924923     91.849846
     -2.857858     44.170652     44.170652     88.341303
     -2.847848     41.533146     41.533146     83.066291
     -2.837838     38.555795     38.555795     77.111591
     -2.827828     35.665675     35.665675     71.331350
     -2.817818     33.053207     33.053207     66.106414
     -2.807808     30.670054     30.670054     61.340109
     -2.797798     28.339315     28.339315     56.678630
     -2.787788     25.913782     25.913782     51.827564
     -2.777778     23.394944     23.394944     46.789888
     -2.767768     20.950630     20.950630     41.901260
     -2.757758     18.828860     18.828860     37.657720
     -2.747748     17.225738     17.225738     34.451477
     -2.737738     16.191065     16.191065     32.382130
     -2.727728     15.630382     15.630382     31.260763
     -2.717718     15.400281     15.400281     30.800562
     -2.707708     15.432529     15.432529     30.865057
     -2.697698     15.801344     15.801344     31.602688
     -2.687688     16.682732     16.682732     33.365463
     -2.677678     18.225058     18.225058     36.450116
     -2.667668     20.411493     20.411493     40.822987
     -2.657658     23.006167     23.006167     46.012333
     -2.647648     25.626637     25.626637     51.253275
     -2.637638     27.905271     27.905271     55.810542
     -2.627628     29.643862     29.643862     59.287725
     -2.617618     30.870160     30.870160     61.740321
     -2.607608     31.770156     31.770156     63.540313
     -2.597598     32.550045     32.550045     65.100090
     -2.587588     33.318630     33.318630     66.637260
     -2.577578     34.050579     34.050579     68.101158
     -2.567568     34.623328     34.623328     69.246656
     -2.557558     34.874100     34.874100     69.748200
     -2.547548     34.633604     34.633604     69.267207
     -2.537538     33.741005     33.741005     67.482010
     -2.527528     32.078130     32.078130     64.156260
     -2.517518     29.644200     29.644200     59.288400
     -2.507508     26.641014     26.641014     53.282028
     -2.497497     23.502197     23.502197     47.004395
     -2.487487     20.816245     20.816245     41.632489
     -2.477477     19.153795     19.153795     38.307591
     -2.467467     18.871622     18.871622     37.743244
     -2.457457     19.987270     19.987270     39.974541
     -2.447447     22.187218     22.187218     44.374436
     -2.437437     24.967284     24.967284     49.934567
     -2.427427     27.840676     27.840676     55.681352
     -2.417417     30.516429     30.516429     61.032857
     -2.407407     32.964027     32.964027     65.928054
     -2.397397     35.333843     35.333843     70.667685
     -2.387387     37.773539     37.773539     75.547078
     -2.377377     40.234500     40.234500     80.468999
     -2.367367     42.372409     42.372409     84.744818
     -2.357357     43.605267     43.605267     87.210533
     -2.347347     43.317605     43.317605     86.635210
     -2.337337     41.126176     41.126176     82.252353
     -2.327327     37.087156     37.087156     74.174312
     -2.317317     31.748495     31.748495     63.496991
     -2.307307     26.022969     26.022969     52.045938
     -2.297297     20.938520     20.938520     41.877040
     -2.287287     17.368793     17.368793     34.737587
     -2.277277     15.838434     15.838434     31.676868
     -2.267267     16.450265     16.450265     32.900531
     -2.257257     18.928674     18.928674     37.857349
     -2.247247     22.740355     22.740355     45.480710
     -2.237237     27.243353     27.243353     54.486707
     -2.227227     31.819155     31.819155     63.638309
     -2.217217     35.954554     35.954554     71.909109
     -2.207207     39.261609     39.261609     78.523218
     -2.197197     41.453323     41.453323     82.906645
     -2.187187     42.316603     42.316603     84.633205
     -2.177177     41.723223     41.723223     83.446446
     -2.167167     39.686949     39.686949     79.373897
     -2.157157     36.428512     36.428512     72.857025
     -2.147147     32.384899     32.384899     64.769799
     -2.137137     28.121165     28.121165     56.242330
     -2.127127     24.163654     24.163654     48.327307
     -2.117117     20.831934     20.831934     41.663867
     -2.107107     18.158644     18.158644     36.317287
     -2.097097     15.939579     15.939579     31.879158
     -2.087087     13.881573     13.881573     27.763145
     -2.077077     11.763728     11.763728     23.527456
     -2.067067      9.530463      9.530463     19.060925
     -2.057057      7.284560      7.284560     14.569120
     -2.047047      5.207137      5.207137     10.414275
     -2.037037      3.462155      3.462155      6.924310
     -2.027027      2.134554      2.134554      4.269109
     -2.017017      1.219243      1.219243      2.438487
     -2.007007      0.648277      0.648277      1.296555
     -1.996997      0.331481      0.331481      0.662962
     -1.986987      0.190948      0.190948      0.381895
     -1.976977      0.182092      0.182092      0.364184
     -1.966967      0.303228      0.303228      0.606456
     -1.956957      0.597785      0.597785      1.195570
     -1.946947      1.149901      1.149901      2.299801
     -1.936937      2.069771      2.069771      4.139541
     -1.926927      3.464478      3.464478      6.928956
     -1.916917      5.395514      5.395514     10.791028
     -1.906907      7.834066      7.834066     15.668133
     -1.896897     10.633043     10.633043     21.266085
     -1.886887     13.533592     13.533592     27.067184
     -1.876877     16.211459     16.211459     32.422919
     -1.866867     18.351196     18.351196     36.702391
     -1.856857     19.724396     19.724396     39.448792
     -1.846847     20.247513     20.247513     40.495026
     -1.836837     20.002129     20.002129     40.004259
     -1.826827     19.209516     19.209516     38.419033
     -1.816817     18.160809     18.160809     36.321619
     -1.806807     17.118330     17.118330     34.236661
     -1.796797     16.221629     16.221629     32.443258
     -1.786787     15.441298     15.441298     30.882596
     -1.776777     14.609532     14.609532     29.219065
     -1.766767     13.518850     13.518850     27.037699
     -1.756757     12.041332     12.041332     24.082664
     -1.746747     10.208531     10.208531     20.417061
     -1.736737      8.216948      8.216948     16.433895
     -1.726727      6.367916      6.367916     12.735831
     -1.716717      4.982285      4.982285      9.964569
     -1.706707      4.330415      4.330415      8.660830
     -1.696697      4.592888      4.592888      9.185776
     -1.686687      5.840765      5.840765     11.681530
     -1.676677      8.016685      8.016685     16.033369
     -1.666667     10.912401     10.912401     21.824803
     -1.656657     14.159940     14.159940     28.319880
     -1.646647     17.263165     17.263165     34.526331
     -1.636637     19.684317     19.684317     39.368635
     -1.626627     20.971956     20.971956     41.943911
