# EIG2DOS: Utility for SIESTA to obtain the electronic density of states
#  E. Artacho, Apr 1999, A. Garcia, Apr 2012
#  Nick R. Papior, Feb 2017
# ------------------------------------------
# Eigenvalues calculated from a non-polarized calculation
# Eigenvalues read from siesta.EIG
# Kpoint weights read from siesta.KP
# Using smearing parameter:   0.0500
# Using 1000 points in the energy range
# Selected bands: 1 to: 2981
# Emin, Emax in file for selected band(s):    -27.0919414    218.3303040
# Nbands, Nspin, Nk   =   2981     1     1
# E_F                 =    -4.2755 eV --> (shifted to ZERO)
# Broadening          =     0.0500 eV
#
#        E            N(up)  (=)   N(down)         Ntot
     -5.000000     42.263128     42.263128     84.526256
     -4.989990     43.730283     43.730283     87.460566
     -4.979980     44.648107     44.648107     89.296214
     -4.969970     44.847541     44.847541     89.695081
     -4.959960     44.163293     44.163293     88.326587
     -4.949950     42.530279     42.530279     85.060559
     -4.939940     40.053136     40.053136     80.106272
     -4.929930     37.030157     37.030157     74.060314
     -4.919920     33.937457     33.937457     67.874915
     -4.909910     31.384714     31.384714     62.769428
     -4.899900     30.040026     30.040026     60.080052
     -4.889890     30.506648     30.506648     61.013296
     -4.879880     33.144007     33.144007     66.288015
     -4.869870     37.868990     37.868990     75.737979
     -4.859860     44.027290     44.027290     88.054580
     -4.849850     50.440419     50.440419    100.880839
     -4.839840     55.676333     55.676333    111.352666
     -4.829830     58.476225     58.476225    116.952450
     -4.819820     58.165611     58.165611    116.331223
     -4.809810     54.861127     54.861127    109.722253
     -4.799800     49.379087     49.379087     98.758174
     -4.789790     42.903122     42.903122     85.806244
     -4.779780     36.580064     36.580064     73.160127
     -4.769770     31.220026     31.220026     62.440052
     -4.759760     27.189111     27.189111     54.378221
     -4.749750     24.472127     24.472127     48.944254
     -4.739740     22.817867     22.817867     45.635733
     -4.729730     21.881372     21.881372     43.762744
     -4.719720     21.318779     21.318779     42.637557
     -4.709710     20.832105     20.832105     41.664210
     -4.699700     20.184444     20.184444     40.368888
     -4.689690     19.211133     19.211133     38.422265
     -4.679680     17.845196     17.845196     35.690392
     -4.669670     16.158899     16.158899     32.317797
     -4.659660     14.403391     14.403391     28.806783
     -4.649650     13.016145     13.016145     26.032291
     -4.639640     12.569740     12.569740     25.139480
     -4.629630     13.654123     13.654123     27.308245
     -4.619620     16.708842     16.708842     33.417684
     -4.609610     21.844737     21.844737     43.689473
     -4.599600     28.712716     28.712716     57.425431
     -4.589590     36.483692     36.483692     72.967385
     -4.579580     43.985254     43.985254     87.970509
     -4.569570     49.989043     49.989043     99.978085
     -4.559560     53.571590     53.571590    107.143181
     -4.549550     54.417597     54.417597    108.835193
     -4.539540     52.936747     52.936747    105.873494
     -4.529530     50.133333     50.133333    100.266666
     -4.519520     47.271697     47.271697     94.543395
     -4.509510     45.466395     45.466395     90.932790
     -4.499499     45.350323     45.350323     90.700647
     -4.489489     46.928932     46.928932     93.857863
     -4.479479     49.643322     49.643322     99.286644
     -4.469469     52.586013     52.586013    105.172027
     -4.459459     54.775329     54.775329    109.550658
     -4.449449     55.403407     55.403407    110.806814
     -4.439439     54.008107     54.008107    108.016214
     -4.429429     50.553455     50.553455    101.106910
     -4.419419     45.422309     45.422309     90.844617
     -4.409409     39.331434     39.331434     78.662868
     -4.399399     33.183507     33.183507     66.367013
     -4.389389     27.879408     27.879408     55.758815
     -4.379379     24.126588     24.126588     48.253177
     -4.369369     22.288814     22.288814     44.577627
     -4.359359     22.321171     22.321171     44.642343
     -4.349349     23.815898     23.815898     47.631796
     -4.339339     26.150362     26.150362     52.300724
     -4.329329     28.690166     28.690166     57.380333
     -4.319319     30.976766     30.976766     61.953532
     -4.309309     32.834972     32.834972     65.669944
     -4.299299     34.369520     34.369520     68.739041
     -4.289289     35.862878     35.862878     71.725756
     -4.279279     37.616898     37.616898     75.233796
     -4.269269     39.790453     39.790453     79.580906
     -4.259259     42.281767     42.281767     84.563534
     -4.249249     44.697445     44.697445     89.394889
     -4.239239     46.436531     46.436531     92.873062
     -4.229229     46.884216     46.884216     93.768431
     -4.219219     45.655869     45.655869     91.311738
     -4.209209     42.786185     42.786185     85.572369
     -4.199199     38.761633     38.761633     77.523265
     -4.189189     34.363310     34.363310     68.726620
     -4.179179     30.387782     30.387782     60.775563
     -4.169169     27.381150     27.381150     54.762300
     -4.159159     25.510782     25.510782     51.021565
     -4.149149     24.619011     24.619011     49.238022
     -4.139139     24.407197     24.407197     48.814394
     -4.129129     24.641383     24.641383     49.282767
     -4.119119     25.273578     25.273578     50.547156
     -4.109109     26.422322     26.422322     52.844644
     -4.099099     28.225984     28.225984     56.451967
     -4.089089     30.646628     30.646628     61.293256
     -4.079079     33.336797     33.336797     66.673594
     -4.069069     35.663510     35.663510     71.327020
     -4.059059     36.908683     36.908683     73.817366
     -4.049049     36.564347     36.564347     73.128694
     -4.039039     34.574734     34.574734     69.149468
     -4.029029     31.395036     31.395036     62.790073
     -4.019019     27.835026     27.835026     55.670051
     -4.009009     24.773659     24.773659     49.547317
     -3.998999     22.891860     22.891860     45.783721
     -3.988989     22.539360     22.539360     45.078720
     -3.978979     23.757347     23.757347     47.514695
     -3.968969     26.390708     26.390708     52.781415
     -3.958959     30.197321     30.197321     60.394643
     -3.948949     34.902040     34.902040     69.804081
     -3.938939     40.206304     40.206304     80.412608
     -3.928929     45.798113     45.798113     91.596226
     -3.918919     51.389833     51.389833    102.779666
     -3.908909     56.765948     56.765948    113.531896
     -3.898899     61.793504     61.793504    123.587007
     -3.888889     66.362683     66.362683    132.725367
     -3.878879     70.275252     70.275252    140.550504
     -3.868869     73.148306     73.148306    146.296611
     -3.858859     74.412951     74.412951    148.825902
     -3.848849     73.448467     73.448467    146.896934
     -3.838839     69.819727     69.819727    139.639455
     -3.828829     63.519003     63.519003    127.038007
     -3.818819     55.093269     55.093269    110.186539
     -3.808809     45.581336     45.581336     91.162673
     -3.798799     36.270756     36.270756     72.541512
     -3.788789     28.365210     28.365210     56.730420
     -3.778779     22.685936     22.685936     45.371872
     -3.768769     19.504462     19.504462     39.008924
     -3.758759     18.542498     18.542498     37.084997
     -3.748749     19.115060     19.115060     38.230119
     -3.738739     20.358629     20.358629     40.717258
     -3.728729     21.478820     21.478820     42.957640
     -3.718719     21.959869     21.959869     43.919738
     -3.708709     21.690988     21.690988     43.381977
     -3.698699     20.979807     20.979807     41.959614
     -3.688689     20.443954     20.443954     40.887908
     -3.678679     20.800830     20.800830     41.601659
     -3.668669     22.609342     22.609342     45.218683
     -3.658659     26.044420     26.044420     52.088841
     -3.648649     30.788584     30.788584     61.577168
     -3.638639     36.091926     36.091926     72.183853
     -3.628629     40.987047     40.987047     81.974093
     -3.618619     44.576786     44.576786     89.153572
     -3.608609     46.279770     46.279770     92.559539
     -3.598599     45.944869     45.944869     91.889739
     -3.588589     43.815503     43.815503     87.631006
     -3.578579     40.392464     40.392464     80.784927
     -3.568569     36.269098     36.269098     72.538197
     -3.558559     31.991946     31.991946     63.983891
     -3.548549     27.964842     27.964842     55.929684
     -3.538539     24.397254     24.397254     48.794507
     -3.528529     21.301337     21.301337     42.602675
     -3.518519     18.544870     18.544870     37.089740
     -3.508509     15.950916     15.950916     31.901833
     -3.498498     13.408208     13.408208     26.816416
     -3.488488     10.943784     10.943784     21.887568
     -3.478478      8.726402      8.726402     17.452804
     -3.468468      7.004597      7.004597     14.009193
     -3.458458      6.011804      6.011804     12.023608
     -3.448448      5.877010      5.877010     11.754020
     -3.438438      6.567977      6.567977     13.135953
     -3.428428      7.880648      7.880648     15.761295
     -3.418418      9.480414      9.480414     18.960828
     -3.408408     10.992741     10.992741     21.985482
     -3.398398     12.124173     12.124173     24.248346
     -3.388388     12.773913     12.773913     25.547826
     -3.378378     13.087702     13.087702     26.175404
     -3.368368     13.423458     13.423458     26.846916
     -3.358358     14.237102     14.237102     28.474204
     -3.348348     15.933192     15.933192     31.866384
     -3.338338     18.734323     18.734323     37.468646
     -3.328328     22.602484     22.602484     45.204968
     -3.318318     27.216015     27.216015     54.432029
     -3.308308     31.993719     31.993719     63.987438
     -3.298298     36.168492     36.168492     72.336985
     -3.288288     38.923839     38.923839     77.847679
     -3.278278     39.589786     39.589786     79.179572
     -3.268268     37.849172     37.849172     75.698345
     -3.258258     33.867081     33.867081     67.734163
     -3.248248     28.267849     28.267849     56.535698
     -3.238238     21.952370     21.952370     43.904740
     -3.228228     15.831302     15.831302     31.662603
     -3.218218     10.590028     10.590028     21.180056
     -3.208208      6.573958      6.573958     13.147915
     -3.198198      3.812900      3.812900      7.625801
     -3.188188      2.139955      2.139955      4.279910
     -3.178178      1.336861      1.336861      2.673722
     -3.168168      1.252615      1.252615      2.505230
     -3.158158      1.870872      1.870872      3.741744
     -3.148148      3.321304      3.321304      6.642609
     -3.138138      5.835267      5.835267     11.670534
     -3.128128      9.647435      9.647435     19.294870
     -3.118118     14.856726     14.856726     29.713452
     -3.108108     21.285123     21.285123     42.570246
     -3.098098     28.397913     28.397913     56.795827
     -3.088088     35.348716     35.348716     70.697432
     -3.078078     41.170644     41.170644     82.341287
     -3.068068     45.061357     45.061357     90.122715
     -3.058058     46.644128     46.644128     93.288255
     -3.048048     46.076568     46.076568     92.153137
     -3.038038     43.943475     43.943475     87.886950
     -3.028028     40.981625     40.981625     81.963250
     -3.018018     37.777383     37.777383     75.554766
     -3.008008     34.592432     34.592432     69.184864
     -2.997998     31.396763     31.396763     62.793526
     -2.987988     28.068222     28.068222     56.136444
     -2.977978     24.629050     24.629050     49.258100
     -2.967968     21.382599     21.382599     42.765199
     -2.957958     18.881830     18.881830     37.763659
     -2.947948     17.753860     17.753860     35.507720
     -2.937938     18.467115     18.467115     36.934230
     -2.927928     21.137457     21.137457     42.274915
     -2.917918     25.441112     25.441112     50.882223
     -2.907908     30.660927     30.660927     61.321854
     -2.897898     35.853771     35.853771     71.707542
     -2.887888     40.092686     40.092686     80.185372
     -2.877878     42.710437     42.710437     85.420874
     -2.867868     43.462189     43.462189     86.924377
     -2.857858     42.546967     42.546967     85.093934
     -2.847848     40.479818     40.479818     80.959635
     -2.837838     37.868922     37.868922     75.737844
     -2.827828     35.193449     35.193449     70.386898
     -2.817818     32.675240     32.675240     65.350480
     -2.807808     30.289743     30.289743     60.579487
     -2.797798     27.892467     27.892467     55.784935
     -2.787788     25.382160     25.382160     50.764319
     -2.777778     22.809620     22.809620     45.619239
     -2.767768     20.377561     20.377561     40.755122
     -2.757758     18.341888     18.341888     36.683776
     -2.747748     16.881679     16.881679     33.763358
     -2.737738     16.021137     16.021137     32.042275
     -2.727728     15.651720     15.651720     31.303439
     -2.717718     15.636920     15.636920     31.273840
     -2.707708     15.926618     15.926618     31.853235
     -2.697698     16.599250     16.599250     33.198500
     -2.687688     17.796671     17.796671     35.593341
     -2.677678     19.590102     19.590102     39.180205
     -2.667668     21.867427     21.867427     43.734854
     -2.657658     24.324927     24.324927     48.649854
     -2.647648     26.581349     26.581349     53.162697
     -2.637638     28.350515     28.350515     56.701030
     -2.627628     29.566881     29.566881     59.133761
     -2.617618     30.387502     30.387502     60.775005
     -2.607608     31.074871     31.074871     62.149742
     -2.597598     31.839803     31.839803     63.679607
     -2.587588     32.738723     32.738723     65.477446
     -2.577578     33.668509     33.668509     67.337018
     -2.567568     34.430399     34.430399     68.860797
     -2.557558     34.800556     34.800556     69.601113
     -2.547548     34.569880     34.569880     69.139760
     -2.537538     33.566734     33.566734     67.133468
     -2.527528     31.700350     31.700350     63.400701
     -2.517518     29.036098     29.036098     58.072195
     -2.507508     25.863506     25.863506     51.727012
     -2.497497     22.693540     22.693540     45.387079
     -2.487487     20.149833     20.149833     40.299665
     -2.477477     18.781205     18.781205     37.562411
     -2.467467     18.875417     18.875417     37.750834
     -2.457457     20.362362     20.362362     40.724724
     -2.447447     22.855258     22.855258     45.710516
     -2.437437     25.813855     25.813855     51.627711
     -2.427427     28.756452     28.756452     57.512905
     -2.417417     31.423816     31.423816     62.847632
     -2.407407     33.819352     33.819352     67.638704
     -2.397397     36.107873     36.107873     72.215746
     -2.387387     38.424145     38.424145     76.848291
     -2.377377     40.689214     40.689214     81.378429
     -2.367367     42.533549     42.533549     85.067097
     -2.357357     43.378684     43.378684     86.757367
     -2.347347     42.653525     42.653525     85.307050
     -2.337337     40.053094     40.053094     80.106189
     -2.327327     35.721450     35.721450     71.442901
     -2.317317     30.273095     30.273095     60.546191
     -2.307307     24.642820     24.642820     49.285640
     -2.297297     19.830996     19.830996     39.661992
     -2.287287     16.647953     16.647953     33.295906
     -2.277277     15.543634     15.543634     31.087268
     -2.267267     16.557699     16.557699     33.115397
     -2.257257     19.375391     19.375391     38.750782
     -2.247247     23.447556     23.447556     46.895112
     -2.237237     28.129080     28.129080     56.258160
     -2.227227     32.797742     32.797742     65.595484
     -2.217217     36.928437     36.928437     73.856873
     -2.207207     40.116528     40.116528     80.233056
     -2.197197     42.067335     42.067335     84.134670
     -2.187187     42.585609     42.585609     85.171219
     -2.177177     41.594590     41.594590     83.189180
     -2.167167     39.184684     39.184684     78.369368
     -2.157157     35.654181     35.654181     71.308362
     -2.147147     31.488865     31.488865     62.977729
     -2.137137     27.253806     27.253806     54.507613
     -2.127127     23.427457     23.427457     46.854914
     -2.117117     20.255876     20.255876     40.511752
     -2.107107     17.705183     17.705183     35.410366
     -2.097097     15.537925     15.537925     31.075850
     -2.087087     13.468465     13.468465     26.936930
     -2.077077     11.311640     11.311640     22.623279
     -2.067067      9.052732      9.052732     18.105465
     -2.057057      6.820534      6.820534     13.641067
     -2.047047      4.799492      4.799492      9.598984
     -2.037037      3.139055      3.139055      6.278109
     -2.027027      1.903069      1.903069      3.806137
     -2.017017      1.068992      1.068992      2.137984
     -2.007007      0.560018      0.560018      1.120036
     -1.996997      0.285391      0.285391      0.570782
     -1.986987      0.171870      0.171870      0.343740
     -1.976977      0.181632      0.181632      0.363263
     -1.966967      0.319845      0.319845      0.639691
     -1.956957      0.635961      0.635961      1.271921
     -1.946947      1.218703      1.218703      2.437406
     -1.936937      2.180545      2.180545      4.361089
     -1.926927      3.627352      3.627352      7.254704
     -1.916917      5.615060      5.615060     11.230120
     -1.906907      8.105279      8.105279     16.210557
     -1.896897     10.939222     10.939222     21.878444
     -1.886887     13.847298     13.847298     27.694597
     -1.876877     16.498643     16.498643     32.997285
     -1.866867     18.577605     18.577605     37.155210
     -1.856857     19.862902     19.862902     39.725804
     -1.846847     20.284869     20.284869     40.569738
     -1.836837     19.943595     19.943595     39.887191
     -1.826827     19.079928     19.079928     38.159856
     -1.816817     18.002057     18.002057     36.004113
     -1.806807     16.986185     16.986185     33.972370
     -1.796797     16.187910     16.187910     32.375820
     -1.786787     15.607270     15.607270     31.214540
     -1.776777     15.130701     15.130701     30.261401
     -1.766767     14.630669     14.630669     29.261339
     -1.756757     14.064648     14.064648     28.129295
     -1.746747     13.510266     13.510266     27.020531
     -1.736737     13.112206     13.112206     26.224413
     -1.726727     12.975165     12.975165     25.950329
     -1.716717     13.075478     13.075478     26.150957
     -1.706707     13.254140     13.254140     26.508280
     -1.696697     13.301295     13.301295     26.602590
     -1.686687     13.081790     13.081790     26.163581
     -1.676677     12.622704     12.622704     25.245409
     -1.666667     12.105447     12.105447     24.210894
     -1.656657     11.762786     11.762786     23.525572
     -1.646647     11.738833     11.738833     23.477665
     -1.636637     11.992872     11.992872     23.985744
     -1.626627     12.303690     12.303690     24.607381
