# EIG2DOS: Utility for SIESTA to obtain the electronic density of states
#  E. Artacho, Apr 1999, A. Garcia, Apr 2012
#  Nick R. Papior, Feb 2017
# ------------------------------------------
# Eigenvalues calculated from a non-polarized calculation
# Eigenvalues read from siesta.EIG
# Kpoint weights read from siesta.KP
# Using smearing parameter:   0.0500
# Using 1000 points in the energy range
# Selected bands: 1 to: 2981
# Emin, Emax in file for selected band(s):    -27.2584452    218.4043830
# Nbands, Nspin, Nk   =   2981     1     1
# E_F                 =    -4.1880 eV --> (shifted to ZERO)
# Broadening          =     0.0500 eV
#
#        E            N(up)  (=)   N(down)         Ntot
     -5.000000     34.212792     34.212792     68.425584
     -4.989990     39.326985     39.326985     78.653969
     -4.979980     43.722377     43.722377     87.444753
     -4.969970     46.588419     46.588419     93.176838
     -4.959960     47.383650     47.383650     94.767301
     -4.949950     46.019091     46.019091     92.038182
     -4.939940     42.889096     42.889096     85.778191
     -4.929930     38.760708     38.760708     77.521415
     -4.919920     34.590029     34.590029     69.180057
     -4.909910     31.336107     31.336107     62.672214
     -4.899900     29.802108     29.802108     59.604216
     -4.889890     30.495233     30.495233     60.990467
     -4.879880     33.498482     33.498482     66.996964
     -4.869870     38.385287     38.385287     76.770574
     -4.859860     44.240664     44.240664     88.481328
     -4.849850     49.837073     49.837073     99.674147
     -4.839840     53.945197     53.945197    107.890394
     -4.829830     55.679724     55.679724    111.359448
     -4.819820     54.743826     54.743826    109.487652
     -4.809810     51.472241     51.472241    102.944482
     -4.799800     46.663586     46.663586     93.327173
     -4.789790     41.285702     41.285702     82.571403
     -4.779780     36.183151     36.183151     72.366302
     -4.769770     31.895087     31.895087     63.790173
     -4.759760     28.624874     28.624874     57.249748
     -4.749750     26.331089     26.331089     52.662178
     -4.739740     24.866661     24.866661     49.733321
     -4.729730     24.090319     24.090319     48.180638
     -4.719720     23.903723     23.903723     47.807446
     -4.709710     24.212667     24.212667     48.425334
     -4.699700     24.854437     24.854437     49.708874
     -4.689690     25.557252     25.557252     51.114504
     -4.679680     25.985795     25.985795     51.971590
     -4.669670     25.878256     25.878256     51.756513
     -4.659660     25.217961     25.217961     50.435921
     -4.649650     24.343976     24.343976     48.687952
     -4.639640     23.917281     23.917281     47.834563
     -4.629630     24.720275     24.720275     49.440550
     -4.619620     27.348454     27.348454     54.696908
     -4.609610     31.915395     31.915395     63.830790
     -4.599600     37.905809     37.905809     75.811617
     -4.589590     44.264708     44.264708     88.529416
     -4.579580     49.715594     49.715594     99.431189
     -4.569570     53.194518     53.194518    106.389037
     -4.559560     54.222638     54.222638    108.445276
     -4.549550     53.057597     53.057597    106.115194
     -4.539540     50.561083     50.561083    101.122166
     -4.529530     47.846848     47.846848     95.693696
     -4.519520     45.863904     45.863904     91.727808
     -4.509510     45.082516     45.082516     90.165032
     -4.499499     45.390349     45.390349     90.780698
     -4.489489     46.210736     46.210736     92.421471
     -4.479479     46.769338     46.769338     93.538676
     -4.469469     46.390591     46.390591     92.781181
     -4.459459     44.711862     44.711862     89.423723
     -4.449449     41.752578     41.752578     83.505156
     -4.439439     37.843923     37.843923     75.687846
     -4.429429     33.481184     33.481184     66.962368
     -4.419419     29.179572     29.179572     58.359143
     -4.409409     25.388410     25.388410     50.776819
     -4.399399     22.466976     22.466976     44.933951
     -4.389389     20.683434     20.683434     41.366869
     -4.379379     20.194926     20.194926     40.389852
     -4.369369     21.001467     21.001467     42.002934
     -4.359359     22.908538     22.908538     45.817076
     -4.349349     25.546510     25.546510     51.093020
     -4.339339     28.466438     28.466438     56.932877
     -4.329329     31.281643     31.281643     62.563287
     -4.319319     33.789588     33.789588     67.579175
     -4.309309     36.012711     36.012711     72.025421
     -4.299299     38.135535     38.135535     76.271071
     -4.289289     40.363482     40.363482     80.726965
     -4.279279     42.762128     42.762128     85.524255
     -4.269269     45.144514     45.144514     90.289028
     -4.259259     47.060680     47.060680     94.121360
     -4.249249     47.911463     47.911463     95.822926
     -4.239239     47.161338     47.161338     94.322677
     -4.229229     44.574757     44.574757     89.149514
     -4.219219     40.372593     40.372593     80.745186
     -4.209209     35.225183     35.225183     70.450365
     -4.199199     30.067284     30.067284     60.134568
     -4.189189     25.805601     25.805601     51.611203
     -4.179179     23.042925     23.042925     46.085851
     -4.169169     21.933882     21.933882     43.867764
     -4.159159     22.222662     22.222662     44.445325
     -4.149149     23.429432     23.429432     46.858865
     -4.139139     25.089758     25.089758     50.179517
     -4.129129     26.934284     26.934284     53.868567
     -4.119119     28.927346     28.927346     57.854691
     -4.109109     31.150928     31.150928     62.301856
     -4.099099     33.599684     33.599684     67.199368
     -4.089089     36.008291     36.008291     72.016582
     -4.079079     37.828664     37.828664     75.657328
     -4.069069     38.400191     38.400191     76.800381
     -4.059059     37.243925     37.243925     74.487851
     -4.049049     34.329102     34.329102     68.658204
     -4.039039     30.165164     30.165164     60.330329
     -4.029029     25.666456     25.666456     51.332911
     -4.019019     21.859524     21.859524     43.719047
     -4.009009     19.576716     19.576716     39.153433
     -3.998999     19.265413     19.265413     38.530827
     -3.988989     20.962317     20.962317     41.924634
     -3.978979     24.395418     24.395418     48.790836
     -3.968969     29.132618     29.132618     58.265237
     -3.958959     34.707868     34.707868     69.415736
     -3.948949     40.698693     40.698693     81.397387
     -3.938939     46.765465     46.765465     93.530930
     -3.928929     52.669124     52.669124    105.338249
     -3.918919     58.266294     58.266294    116.532588
     -3.908909     63.466113     63.466113    126.932226
     -3.898899     68.144963     68.144963    136.289926
     -3.888889     72.049765     72.049765    144.099529
     -3.878879     74.748714     74.748714    149.497428
     -3.868869     75.681241     75.681241    151.362481
     -3.858859     74.313325     74.313325    148.626650
     -3.848849     70.346273     70.346273    140.692546
     -3.838839     63.891947     63.891947    127.783894
     -3.828829     55.535339     55.535339    111.070678
     -3.818819     46.250263     46.250263     92.500526
     -3.808809     37.191567     37.191567     74.383135
     -3.798799     29.431105     29.431105     58.862209
     -3.788789     23.719284     23.719284     47.438568
     -3.778779     20.339030     20.339030     40.678059
     -3.768769     19.085452     19.085452     38.170905
     -3.758759     19.367027     19.367027     38.734055
     -3.748749     20.394055     20.394055     40.788109
     -3.738739     21.403043     21.403043     42.806087
     -3.728729     21.861639     21.861639     43.723278
     -3.718719     21.605333     21.605333     43.210667
     -3.708709     20.871744     20.871744     41.743488
     -3.698699     20.219314     20.219314     40.438627
     -3.688689     20.344202     20.344202     40.688405
     -3.678679     21.839579     21.839579     43.679158
     -3.668669     24.967692     24.967692     49.935383
     -3.658659     29.523909     29.523909     59.047818
     -3.648649     34.850744     34.850744     69.701488
     -3.638639     40.007867     40.007867     80.015735
     -3.628629     44.040052     44.040052     88.080104
     -3.618619     46.241841     46.241841     92.483681
     -3.608609     46.322329     46.322329     92.644658
     -3.598599     44.424832     44.424832     88.849664
     -3.588589     41.022481     41.022481     82.044963
     -3.578579     36.752203     36.752203     73.504406
     -3.568569     32.249087     32.249087     64.498173
     -3.558559     28.016887     28.016887     56.033775
     -3.548549     24.347752     24.347752     48.695505
     -3.538539     21.298692     21.298692     42.597384
     -3.528529     18.732196     18.732196     37.464391
     -3.518519     16.415590     16.415590     32.831180
     -3.508509     14.147708     14.147708     28.295416
     -3.498498     11.862126     11.862126     23.724253
     -3.488488      9.663631      9.663631     19.327262
     -3.478478      7.787233      7.787233     15.574467
     -3.468468      6.504930      6.504930     13.009861
     -3.458458      6.022455      6.022455     12.044910
     -3.448448      6.402692      6.402692     12.805384
     -3.438438      7.537045      7.537045     15.074089
     -3.428428      9.173249      9.173249     18.346498
     -3.418418     10.997568     10.997568     21.995137
     -3.408408     12.753029     12.753029     25.506057
     -3.398398     14.353155     14.353155     28.706310
     -3.388388     15.937509     15.937509     31.875018
     -3.378378     17.829788     17.829788     35.659577
     -3.368368     20.403347     20.403347     40.806694
     -3.358358     23.908934     23.908934     47.817868
     -3.348348     28.340900     28.340900     56.681801
     -3.338338     33.394423     33.394423     66.788846
     -3.328328     38.515421     38.515421     77.030842
     -3.318318     43.005953     43.005953     86.011907
     -3.308308     46.146719     46.146719     92.293437
     -3.298298     47.323302     47.323302     94.646605
     -3.288288     46.157513     46.157513     92.315027
     -3.278278     42.627552     42.627552     85.255105
     -3.268268     37.129311     37.129311     74.258623
     -3.258258     30.427217     30.427217     60.854434
     -3.248248     23.486191     23.486191     46.972381
     -3.238238     17.239768     17.239768     34.479537
     -3.228228     12.383675     12.383675     24.767350
     -3.218218      9.263618      9.263618     18.527237
     -3.208208      7.871246      7.871246     15.742493
     -3.198198      7.916964      7.916964     15.833928
     -3.188188      8.939306      8.939306     17.878612
     -3.178178     10.428070     10.428070     20.856139
     -3.168168     11.952617     11.952617     23.905235
     -3.158158     13.279000     13.279000     26.558000
     -3.148148     14.439126     14.439126     28.878252
     -3.138138     15.708828     15.708828     31.417657
     -3.128128     17.478161     17.478161     34.956322
     -3.118118     20.049239     20.049239     40.098477
     -3.108108     23.444490     23.444490     46.888980
     -3.098098     27.318747     27.318747     54.637495
     -3.088088     31.029161     31.029161     62.058322
     -3.078078     33.843149     33.843149     67.686297
     -3.068068     35.194126     35.194126     70.388252
     -3.058058     34.867534     34.867534     69.735069
     -3.048048     33.034691     33.034691     66.069382
     -3.038038     30.132613     30.132613     60.265226
     -3.028028     26.667965     26.667965     53.335929
     -3.018018     23.054441     23.054441     46.108882
     -3.008008     19.558318     19.558318     39.116637
     -2.997998     16.353151     16.353151     32.706302
     -2.987988     13.621941     13.621941     27.243881
     -2.977978     11.629763     11.629763     23.259525
     -2.967968     10.720693     10.720693     21.441386
     -2.957958     11.240016     11.240016     22.480031
     -2.947948     13.415896     13.415896     26.831791
     -2.937938     17.244687     17.244687     34.489374
     -2.927928     22.419470     22.419470     44.838940
     -2.917918     28.332147     28.332147     56.664294
     -2.907908     34.165214     34.165214     68.330428
     -2.897898     39.064614     39.064614     78.129228
     -2.887888     42.351271     42.351271     84.702543
     -2.877878     43.700541     43.700541     87.401081
     -2.867868     43.216140     43.216140     86.432280
     -2.857858     41.359448     41.359448     82.718896
     -2.847848     38.756592     38.756592     77.513185
     -2.837838     35.964823     35.964823     71.929646
     -2.827828     33.302089     33.302089     66.604178
     -2.817818     30.812474     30.812474     61.624947
     -2.807808     28.369231     28.369231     56.738462
     -2.797798     25.845762     25.845762     51.691524
     -2.787788     23.253969     23.253969     46.507939
     -2.777778     20.776356     20.776356     41.552711
     -2.767768     18.685590     18.685590     37.371179
     -2.757758     17.212059     17.212059     34.424119
     -2.747748     16.446077     16.446077     32.892154
     -2.737738     16.332041     16.332041     32.664083
     -2.727728     16.746562     16.746562     33.493124
     -2.717718     17.594691     17.594691     35.189382
     -2.707708     18.848051     18.848051     37.696102
     -2.697698     20.495018     20.495018     40.990037
     -2.687688     22.444595     22.444595     44.889191
     -2.677678     24.469244     24.469244     48.938489
     -2.667668     26.251332     26.251332     52.502664
     -2.657658     27.523313     27.523313     55.046625
     -2.647648     28.216804     28.216804     56.433608
     -2.637638     28.518083     28.518083     57.036166
     -2.627628     28.783912     28.783912     57.567824
     -2.617618     29.362349     29.362349     58.724698
     -2.607608     30.422127     30.422127     60.844254
     -2.597598     31.880464     31.880464     63.760928
     -2.587588     33.448719     33.448719     66.897439
     -2.577578     34.745085     34.745085     69.490171
     -2.567568     35.403652     35.403652     70.807305
     -2.557558     35.143397     35.143397     70.286793
     -2.547548     33.808657     33.808657     67.617315
     -2.537538     31.409649     31.409649     62.819299
     -2.527528     28.167323     28.167323     56.334646
     -2.517518     24.530721     24.530721     49.061441
     -2.507508     21.125087     21.125087     42.250174
     -2.497497     18.617985     18.617985     37.235970
     -2.487487     17.538061     17.538061     35.076121
     -2.477477     18.114240     18.114240     36.228481
     -2.467467     20.202526     20.202526     40.405052
     -2.457457     23.335419     23.335419     46.670838
     -2.447447     26.881187     26.881187     53.762375
     -2.437437     30.255467     30.255467     60.510933
     -2.427427     33.102646     33.102646     66.205291
     -2.417417     35.370878     35.370878     70.741756
     -2.407407     37.244585     37.244585     74.489169
     -2.397397     38.960243     38.960243     77.920486
     -2.387387     40.590375     40.590375     81.180751
     -2.377377     41.907086     41.907086     83.814172
     -2.367367     42.409292     42.409292     84.818585
     -2.357357     41.520277     41.520277     83.040553
     -2.347347     38.869760     38.869760     77.739521
     -2.337337     34.521356     34.521356     69.042712
     -2.327327     29.029725     29.029725     58.059450
     -2.317317     23.301551     23.301551     46.603102
     -2.307307     18.333946     18.333946     36.667891
     -2.297297     14.951669     14.951669     29.903338
     -2.287287     13.639791     13.639791     27.279582
     -2.277277     14.501301     14.501301     29.002602
     -2.267267     17.309530     17.309530     34.619061
     -2.257257     21.603195     21.603195     43.206390
     -2.247247     26.783502     26.783502     53.567004
     -2.237237     32.195822     32.195822     64.391644
     -2.227227     37.195084     37.195084     74.390167
     -2.217217     41.200499     41.200499     82.400998
     -2.207207     43.746154     43.746154     87.492308
     -2.197197     44.532456     44.532456     89.064913
     -2.187187     43.477491     43.477491     86.954982
     -2.177177     40.754804     40.754804     81.509608
     -2.167167     36.790605     36.790605     73.581210
     -2.157157     32.192954     32.192954     64.385908
     -2.147147     27.609771     27.609771     55.219542
     -2.137137     23.554890     23.554890     47.109779
     -2.127127     20.274468     20.274468     40.548937
     -2.117117     17.720254     17.720254     35.440507
     -2.107107     15.646290     15.646290     31.292580
     -2.097097     13.780103     13.780103     27.560205
     -2.087087     11.980592     11.980592     23.961183
     -2.077077     10.306876     10.306876     20.613753
     -2.067067      8.974018      8.974018     17.948035
     -2.057057      8.228510      8.228510     16.457019
     -2.047047      8.208206      8.208206     16.416412
     -2.037037      8.849272      8.849272     17.698545
     -2.027027      9.877057      9.877057     19.754114
     -2.017017     10.883269     10.883269     21.766538
     -2.007007     11.459451     11.459451     22.918902
     -1.996997     11.335060     11.335060     22.670121
     -1.986987     10.466387     10.466387     20.932775
     -1.976977      9.044226      9.044226     18.088452
     -1.966967      7.424915      7.424915     14.849830
     -1.956957      6.020963      6.020963     12.041926
     -1.946947      5.196062      5.196062     10.392123
     -1.936937      5.193510      5.193510     10.387021
     -1.926927      6.102776      6.102776     12.205552
     -1.916917      7.854557      7.854557     15.709115
     -1.906907     10.236138     10.236138     20.472276
     -1.896897     12.926701     12.926701     25.853401
     -1.886887     15.553913     15.553913     31.107826
     -1.876877     17.765245     17.765245     35.530491
     -1.866867     19.298113     19.298113     38.596225
     -1.856857     20.030759     20.030759     40.061518
     -1.846847     20.001168     20.001168     40.002336
     -1.836837     19.388016     19.388016     38.776033
     -1.826827     18.453245     18.453245     36.906489
     -1.816817     17.455007     17.455007     34.910014
     -1.806807     16.555734     16.555734     33.111468
     -1.796797     15.763983     15.763983     31.527967
     -1.786787     14.943812     14.943812     29.887625
     -1.776777     13.894774     13.894774     27.789548
     -1.766767     12.465053     12.465053     24.930106
     -1.756757     10.638858     10.638858     21.277715
     -1.746747      8.554600      8.554600     17.109199
     -1.736737      6.452529      6.452529     12.905059
     -1.726727      4.589421      4.589421      9.178842
     -1.716717      3.168485      3.168485      6.336971
     -1.706707      2.312510      2.312510      4.625021
     -1.696697      2.075587      2.075587      4.151175
     -1.686687      2.466214      2.466214      4.932427
     -1.676677      3.453814      3.453814      6.907628
     -1.666667      4.949094      4.949094      9.898188
     -1.656657      6.773484      6.773484     13.546967
     -1.646647      8.649094      8.649094     17.298187
     -1.636637     10.236926     10.236926     20.473853
     -1.626627     11.226868     11.226868     22.453736
