# EIG2DOS: Utility for SIESTA to obtain the electronic density of states
#  E. Artacho, Apr 1999, A. Garcia, Apr 2012
#  Nick R. Papior, Feb 2017
# ------------------------------------------
# Eigenvalues calculated from a non-polarized calculation
# Eigenvalues read from siesta.EIG
# Kpoint weights read from siesta.KP
# Using smearing parameter:   0.0500
# Using 1000 points in the energy range
# Selected bands: 1 to: 2981
# Emin, Emax in file for selected band(s):    -27.0430225    218.3022240
# Nbands, Nspin, Nk   =   2981     1     1
# E_F                 =    -4.3096 eV --> (shifted to ZERO)
# Broadening          =     0.0500 eV
#
#        E            N(up)  (=)   N(down)         Ntot
     -5.000000     45.618318     45.618318     91.236636
     -4.989990     49.429126     49.429126     98.858252
     -4.979980     51.598033     51.598033    103.196065
     -4.969970     51.910196     51.910196    103.820392
     -4.959960     50.448350     50.448350    100.896700
     -4.949950     47.551008     47.551008     95.102016
     -4.939940     43.720223     43.720223     87.440446
     -4.929930     39.531087     39.531087     79.062173
     -4.919920     35.580043     35.580043     71.160086
     -4.909910     32.470928     32.470928     64.941855
     -4.899900     30.800180     30.800180     61.600361
     -4.889890     31.089113     31.089113     62.178225
     -4.879880     33.636376     33.636376     67.272752
     -4.869870     38.324453     38.324453     76.648906
     -4.859860     44.479361     44.479361     88.958723
     -4.849850     50.902980     50.902980    101.805961
     -4.839840     56.137371     56.137371    112.274742
     -4.829830     58.897220     58.897220    117.794440
     -4.819820     58.493016     58.493016    116.986032
     -4.809810     55.046339     55.046339    110.092678
     -4.799800     49.396512     49.396512     98.793023
     -4.789790     42.757311     42.757311     85.514621
     -4.779780     36.300618     36.300618     72.601235
     -4.769770     30.850248     30.850248     61.700497
     -4.759760     26.775904     26.775904     53.551807
     -4.749750     24.060543     24.060543     48.121085
     -4.739740     22.448724     22.448724     44.897449
     -4.729730     21.588765     21.588765     43.177530
     -4.719720     21.126384     21.126384     42.252768
     -4.709710     20.749858     20.749858     41.499717
     -4.699700     20.207358     20.207358     40.414716
     -4.689690     19.319907     19.319907     38.639814
     -4.679680     18.006443     18.006443     36.012887
     -4.669670     16.323605     16.323605     32.647209
     -4.659660     14.505415     14.505415     29.010831
     -4.649650     12.975638     12.975638     25.951277
     -4.639640     12.306710     12.306710     24.613420
     -4.629630     13.113749     13.113749     26.227498
     -4.619620     15.893140     15.893140     31.786279
     -4.609610     20.837423     20.837423     41.674847
     -4.599600     27.680274     27.680274     55.360547
     -4.589590     35.640753     35.640753     71.281506
     -4.579580     43.527754     43.527754     87.055508
     -4.569570     50.017663     50.017663    100.035326
     -4.559560     54.038618     54.038618    108.077235
     -4.549550     55.122942     55.122942    110.245885
     -4.539540     53.575340     53.575340    107.150680
     -4.529530     50.370188     50.370188    100.740376
     -4.519520     46.808951     46.808951     93.617902
     -4.509510     44.075622     44.075622     88.151244
     -4.499499     42.867401     42.867401     85.734802
     -4.489489     43.233310     43.233310     86.466620
     -4.479479     44.655176     44.655176     89.310352
     -4.469469     46.306471     46.306471     92.612943
     -4.459459     47.368961     47.368961     94.737921
     -4.449449     47.289543     47.289543     94.579085
     -4.439439     45.905434     45.905434     91.810869
     -4.429429     43.426382     43.426382     86.852765
     -4.419419     40.312153     40.312153     80.624306
     -4.409409     37.108033     37.108033     74.216066
     -4.399399     34.298246     34.298246     68.596492
     -4.389389     32.214055     32.214055     64.428109
     -4.379379     31.003020     31.003020     62.006040
     -4.369369     30.643175     30.643175     61.286351
     -4.359359     30.980037     30.980037     61.960075
     -4.349349     31.773434     31.773434     63.546868
     -4.339339     32.752925     32.752925     65.505851
     -4.329329     33.682407     33.682407     67.364815
     -4.319319     34.424299     34.424299     68.848598
     -4.309309     34.982137     34.982137     69.964275
     -4.299299     35.500356     35.500356     71.000711
     -4.289289     36.213708     36.213708     72.427417
     -4.279279     37.356694     37.356694     74.713388
     -4.269269     39.055595     39.055595     78.111190
     -4.259259     41.232682     41.232682     82.465364
     -4.249249     43.558518     43.558518     87.117035
     -4.239239     45.489880     45.489880     90.979761
     -4.229229     46.411711     46.411711     92.823422
     -4.219219     45.853432     45.853432     91.706863
     -4.209209     43.693511     43.693511     87.387022
     -4.199199     40.245403     40.245403     80.490806
     -4.189189     36.163910     36.163910     72.327820
     -4.179179     32.206124     32.206124     64.412249
     -4.169169     28.964405     28.964405     57.928811
     -4.159159     26.702791     26.702791     53.405583
     -4.149149     25.364774     25.364774     50.729547
     -4.139139     24.724406     24.724406     49.448812
     -4.129129     24.583136     24.583136     49.166272
     -4.119119     24.903033     24.903033     49.806066
     -4.109109     25.807863     25.807863     51.615727
     -4.099099     27.451886     27.451886     54.903771
     -4.089089     29.825251     29.825251     59.650501
     -4.079079     32.607463     32.607463     65.214926
     -4.069069     35.170938     35.170938     70.341877
     -4.059059     36.766482     36.766482     73.532964
     -4.049049     36.819369     36.819369     73.638737
     -4.039039     35.189329     35.189329     70.378659
     -4.029029     32.255360     32.255360     64.510721
     -4.019019     28.780519     28.780519     57.561038
     -4.009009     25.634342     25.634342     51.268685
     -3.998999     23.520560     23.520560     47.041121
     -3.988989     22.832749     22.832749     45.665498
     -3.978979     23.666205     23.666205     47.332411
     -3.968969     25.921653     25.921653     51.843305
     -3.958959     29.406380     29.406380     58.812760
     -3.948949     33.878967     33.878967     67.757933
     -3.938939     39.050693     39.050693     78.101385
     -3.928929     44.593440     44.593440     89.186880
     -3.918919     50.185873     50.185873    100.371745
     -3.908909     55.579405     55.579405    111.158811
     -3.898899     60.629472     60.629472    121.258943
     -3.888889     65.248200     65.248200    130.496400
     -3.878879     69.286875     69.286875    138.573750
     -3.868869     72.414915     72.414915    144.829829
     -3.858859     74.085601     74.085601    148.171201
     -3.848849     73.646599     73.646599    147.293199
     -3.838839     70.577522     70.577522    141.155044
     -3.828829     64.757777     64.757777    129.515554
     -3.818819     56.633786     56.633786    113.267572
     -3.808809     47.190797     47.190797     94.381594
     -3.798799     37.724305     37.724305     75.448610
     -3.788789     29.498581     29.498581     58.997163
     -3.778779     23.423762     23.423762     46.847523
     -3.768769     19.861085     19.861085     39.722171
     -3.758759     18.601641     18.601641     37.203282
     -3.748749     18.998243     18.998243     37.996486
     -3.738739     20.191196     20.191196     40.382393
     -3.728729     21.359913     21.359913     42.719825
     -3.718719     21.940929     21.940929     43.881858
     -3.708709     21.766422     21.766422     43.532844
     -3.698699     21.092210     21.092210     42.184420
     -3.688689     20.503795     20.503795     41.007590
     -3.678679     20.716613     20.716613     41.433226
     -3.668669     22.320139     22.320139     44.640278
     -3.658659     25.544233     25.544233     51.088467
     -3.648649     30.133383     30.133383     60.266766
     -3.638639     35.386018     35.386018     70.772036
     -3.628629     40.353804     40.353804     80.707609
     -3.618619     44.125434     44.125434     88.250868
     -3.608609     46.080722     46.080722     92.161445
     -3.598599     46.020487     46.020487     92.040974
     -3.588589     44.144908     44.144908     88.289815
     -3.578579     40.923806     40.923806     81.847613
     -3.568569     36.933023     36.933023     73.866047
     -3.558559     32.713770     32.713770     65.427539
     -3.548549     28.675730     28.675730     57.351460
     -3.538539     25.044197     25.044197     50.088394
     -3.528529     21.853687     21.853687     43.707373
     -3.518519     18.994730     18.994730     37.989460
     -3.508509     16.307090     16.307090     32.614180
     -3.498498     13.686710     13.686710     27.373421
     -3.488488     11.159462     11.159462     22.318923
     -3.478478      8.888826      8.888826     17.777652
     -3.468468      7.118499      7.118499     14.236999
     -3.458458      6.080094      6.080094     12.160188
     -3.448448      5.903907      5.903907     11.807813
     -3.438438      6.560635      6.560635     13.121270
     -3.428428      7.848705      7.848705     15.697409
     -3.418418      9.433602      9.433602     18.867203
     -3.408408     10.937217     10.937217     21.874435
     -3.398398     12.058758     12.058758     24.117515
     -3.388388     12.687838     12.687838     25.375675
     -3.378378     12.961257     12.961257     25.922513
     -3.368368     13.231834     13.231834     26.463668
     -3.358358     13.956336     13.956336     27.912672
     -3.348348     15.546507     15.546507     31.093014
     -3.338338     18.237892     18.237892     36.475783
     -3.328328     22.010912     22.010912     44.021825
     -3.318318     26.567807     26.567807     53.135613
     -3.308308     31.354689     31.354689     62.709378
     -3.298298     35.628178     35.628178     71.256356
     -3.288288     38.580111     38.580111     77.160221
     -3.278278     39.522335     39.522335     79.044670
     -3.268268     38.090990     38.090990     76.181980
     -3.258258     34.387912     34.387912     68.775823
     -3.248248     28.979814     28.979814     57.959627
     -3.238238     22.736697     22.736697     45.473394
     -3.228228     16.573805     16.573805     33.147611
     -3.218218     11.209157     11.209157     22.418314
     -3.208208      7.030549      7.030549     14.061098
     -3.198198      4.100246      4.100246      8.200493
     -3.188188      2.259764      2.259764      4.519527
     -3.178178      1.268092      1.268092      2.536184
     -3.168168      0.918204      0.918204      1.836408
     -3.158158      1.106804      1.106804      2.213608
     -3.148148      1.856610      1.856610      3.713219
     -3.138138      3.298806      3.298806      6.597612
     -3.128128      5.621146      5.621146     11.242292
     -3.118118      8.986629      8.986629     17.973257
     -3.108108     13.436545     13.436545     26.873090
     -3.098098     18.807116     18.807116     37.614231
     -3.088088     24.698439     24.698439     49.396877
     -3.078078     30.524157     30.524157     61.048315
     -3.068068     35.637116     35.637116     71.274231
     -3.058058     39.485476     39.485476     78.970952
     -3.048048     41.732536     41.732536     83.465072
     -3.038038     42.291679     42.291679     84.583357
     -3.028028     41.278567     41.278567     82.557134
     -3.018018     38.931820     38.931820     77.863641
     -3.008008     35.563962     35.563962     71.127925
     -2.997998     31.567652     31.567652     63.135304
     -2.987988     27.447362     27.447362     54.894724
     -2.977978     23.817508     23.817508     47.635017
     -2.967968     21.326757     21.326757     42.653514
     -2.957958     20.518518     20.518518     41.037036
     -2.947948     21.681276     21.681276     43.362553
     -2.937938     24.751197     24.751197     49.502394
     -2.927928     29.303877     29.303877     58.607754
     -2.917918     34.634430     34.634430     69.268860
     -2.907908     39.898379     39.898379     79.796757
     -2.897898     44.277894     44.277894     88.555787
     -2.887888     47.141051     47.141051     94.282101
     -2.877878     48.164580     48.164580     96.329160
     -2.867868     47.390527     47.390527     94.781053
     -2.857858     45.192836     45.192836     90.385671
     -2.847848     42.151222     42.151222     84.302444
     -2.837838     38.865097     38.865097     77.730195
     -2.827828     35.772776     35.772776     71.545553
     -2.817818     33.048021     33.048021     66.096042
     -2.807808     30.616162     30.616162     61.232324
     -2.797798     28.276469     28.276469     56.552938
     -2.787788     25.864983     25.864983     51.729967
     -2.777778     23.372577     23.372577     46.745153
     -2.767768     20.959485     20.959485     41.918971
     -2.757758     18.866769     18.866769     37.733538
     -2.747748     17.284115     17.284115     34.568231
     -2.737738     16.257492     16.257492     32.514984
     -2.727728     15.693681     15.693681     31.387362
     -2.717718     15.456223     15.456223     30.912446
     -2.707708     15.486927     15.486927     30.973854
     -2.697698     15.867936     15.867936     31.735871
     -2.687688     16.775916     16.775916     33.551832
     -2.677678     18.350870     18.350870     36.701740
     -2.667668     20.561878     20.561878     41.123756
     -2.657658     23.160340     23.160340     46.320679
     -2.647648     25.759432     25.759432     51.518865
     -2.637638     27.998162     27.998162     55.996324
     -2.627628     29.692607     29.692607     59.385214
     -2.617618     30.885038     30.885038     61.770076
     -2.607608     31.769317     31.769317     63.538635
     -2.597598     32.550391     32.550391     65.100781
     -2.587588     33.329271     33.329271     66.658542
     -2.577578     34.071185     34.071185     68.142371
     -2.567568     34.646177     34.646177     69.292355
     -2.557558     34.887168     34.887168     69.774335
     -2.547548     34.623323     34.623323     69.246646
     -2.537538     33.695406     33.695406     67.390812
     -2.527528     31.991419     31.991419     63.982838
     -2.517518     29.522001     29.522001     59.044002
     -2.507508     26.503235     26.503235     53.006471
     -2.497497     23.380302     23.380302     46.760604
     -2.487487     20.744240     20.744240     41.488479
     -2.477477     19.155940     19.155940     38.311879
     -2.467467     18.952222     18.952222     37.904444
     -2.457457     20.127467     20.127467     40.254933
     -2.447447     22.350626     22.350626     44.701253
     -2.437437     25.112331     25.112331     50.224661
     -2.427427     27.934452     27.934452     55.868905
     -2.417417     30.544326     30.544326     61.088652
     -2.407407     32.931562     32.931562     65.863124
     -2.397397     35.260746     35.260746     70.521491
     -2.387387     37.683466     37.683466     75.366931
     -2.377377     40.145066     40.145066     80.290131
     -2.367367     42.289397     42.289397     84.578794
     -2.357357     43.522669     43.522669     87.045339
     -2.347347     43.222758     43.222758     86.445517
     -2.337337     41.007389     41.007389     82.014778
     -2.327327     36.940444     36.940444     73.880888
     -2.317317     31.580597     31.580597     63.161195
     -2.307307     25.849646     25.849646     51.699293
     -2.297297     20.779453     20.779453     41.558907
     -2.287287     17.241831     17.241831     34.483663
     -2.277277     15.755749     15.755749     31.511498
     -2.267267     16.417407     16.417407     32.834813
     -2.257257     18.945754     18.945754     37.891508
     -2.247247     22.803731     22.803731     45.607461
     -2.237237     27.346497     27.346497     54.692994
     -2.227227     31.952377     31.952377     63.904754
     -2.217217     36.104255     36.104255     72.208510
     -2.207207     39.410221     39.410221     78.820441
     -2.197197     41.580997     41.580997     83.161993
     -2.187187     42.404947     42.404947     84.809894
     -2.177177     41.760248     41.760248     83.520496
     -2.167167     39.671271     39.671271     79.342541
     -2.157157     36.370500     36.370500     72.741000
     -2.147147     32.303409     32.303409     64.606819
     -2.137137     28.036624     28.036624     56.073248
     -2.127127     24.090400     24.090400     48.180801
     -2.117117     20.773503     20.773503     41.547007
     -2.107107     18.108316     18.108316     36.216632
     -2.097097     15.885671     15.885671     31.771343
     -2.087087     13.814433     13.814433     27.628866
     -2.077077     11.680725     11.680725     23.361450
     -2.067067      9.436794      9.436794     18.873587
     -2.057057      7.190248      7.190248     14.380495
     -2.047047      5.122466      5.122466     10.244932
     -2.037037      3.394044      3.394044      6.788087
     -2.027027      2.085216      2.085216      4.170432
     -2.017017      1.186982      1.186982      2.373965
     -2.007007      0.629376      0.629376      1.258753
     -1.996997      0.322101      0.322101      0.644202
     -1.986987      0.188460      0.188460      0.376919
     -1.976977      0.185800      0.185800      0.371600
     -1.966967      0.314654      0.314654      0.629308
     -1.956957      0.620597      0.620597      1.241194
     -1.946947      1.189305      1.189305      2.378611
     -1.936937      2.131080      2.131080      4.262161
     -1.926927      3.550779      3.550779      7.101557
     -1.916917      5.504965      5.504965     11.009931
     -1.906907      7.958030      7.958030     15.916061
     -1.896897     10.756436     10.756436     21.512872
     -1.886887     13.638176     13.638176     27.276351
     -1.876877     16.281351     16.281351     32.562702
     -1.866867     18.378510     18.378510     36.757020
     -1.856857     19.712543     19.712543     39.425086
     -1.846847     20.210567     20.210567     40.421135
     -1.836837     19.960348     19.960348     39.920695
     -1.826827     19.182539     19.182539     38.365078
     -1.816817     18.160827     18.160827     36.321655
     -1.806807     17.145504     17.145504     34.291008
     -1.796797     16.263471     16.263471     32.526942
     -1.786787     15.476542     15.476542     30.953085
     -1.776777     14.615164     14.615164     29.230328
     -1.766767     13.477089     13.477089     26.954178
     -1.756757     11.942568     11.942568     23.885136
     -1.746747     10.047376     10.047376     20.094752
     -1.736737      7.981664      7.981664     15.963328
     -1.726727      6.027305      6.027305     12.054609
     -1.716717      4.477370      4.477370      8.954739
     -1.706707      3.579462      3.579462      7.158923
     -1.696697      3.515943      3.515943      7.031887
     -1.686687      4.402495      4.402495      8.804990
     -1.676677      6.274504      6.274504     12.549009
     -1.666667      9.045905      9.045905     18.091810
     -1.656657     12.456532     12.456532     24.913063
     -1.646647     16.050208     16.050208     32.100416
     -1.636637     19.226248     19.226248     38.452496
     -1.626627     21.375515     21.375515     42.751030
