# EIG2DOS: Utility for SIESTA to obtain the electronic density of states
#  E. Artacho, Apr 1999, A. Garcia, Apr 2012
#  Nick R. Papior, Feb 2017
# ------------------------------------------
# Eigenvalues calculated from a non-polarized calculation
# Eigenvalues read from siesta.EIG
# Kpoint weights read from siesta.KP
# Using smearing parameter:   0.0500
# Using 1000 points in the energy range
# Selected bands: 1 to: 2981
# Emin, Emax in file for selected band(s):    -27.2850334    218.4044790
# Nbands, Nspin, Nk   =   2981     1     1
# E_F                 =    -4.1948 eV --> (shifted to ZERO)
# Broadening          =     0.0500 eV
#
#        E            N(up)  (=)   N(down)         Ntot
     -5.000000     32.913374     32.913374     65.826748
     -4.989990     37.950457     37.950457     75.900913
     -4.979980     42.497160     42.497160     84.994319
     -4.969970     45.747749     45.747749     91.495499
     -4.959960     47.087874     47.087874     94.175747
     -4.949950     46.300654     46.300654     92.601308
     -4.939940     43.642032     43.642032     87.284063
     -4.929930     39.773431     39.773431     79.546862
     -4.919920     35.602235     35.602235     71.204470
     -4.909910     32.097930     32.097930     64.195860
     -4.899900     30.123612     30.123612     60.247223
     -4.889890     30.284549     30.284549     60.569097
     -4.879880     32.787527     32.787527     65.575053
     -4.869870     37.334724     37.334724     74.669448
     -4.859860     43.111737     43.111737     86.223474
     -4.849850     48.926678     48.926678     97.853357
     -4.839840     53.499822     53.499822    106.999644
     -4.829830     55.820445     55.820445    111.640891
     -4.819820     55.434755     55.434755    110.869509
     -4.809810     52.546236     52.546236    105.092473
     -4.799800     47.892870     47.892870     95.785739
     -4.789790     42.467252     42.467252     84.934503
     -4.779780     37.208152     37.208152     74.416303
     -4.769770     32.784323     32.784323     65.568646
     -4.759760     29.526425     29.526425     59.052851
     -4.749750     27.484098     27.484098     54.968195
     -4.739740     26.535692     26.535692     53.071383
     -4.729730     26.476458     26.476458     52.952916
     -4.719720     27.047788     27.047788     54.095576
     -4.709710     27.920797     27.920797     55.841594
     -4.699700     28.685044     28.685044     57.370088
     -4.689690     28.896674     28.896674     57.793348
     -4.679680     28.204354     28.204354     56.408709
     -4.669670     26.514093     26.514093     53.028186
     -4.659660     24.111711     24.111711     48.223422
     -4.649650     21.665096     21.665096     43.330192
     -4.639640     20.077585     20.077585     40.155169
     -4.629630     20.228731     20.228731     40.457462
     -4.619620     22.684448     22.684448     45.368895
     -4.609610     27.471056     27.471056     54.942112
     -4.599600     33.993166     33.993166     67.986332
     -4.589590     41.141122     41.141122     82.282244
     -4.579580     47.579777     47.579777     95.159553
     -4.569570     52.141706     52.141706    104.283412
     -4.559560     54.190403     54.190403    108.380806
     -4.549550     53.810341     53.810341    107.620682
     -4.539540     51.740661     51.740661    103.481322
     -4.529530     49.075700     49.075700     98.151400
     -4.519520     46.855088     46.855088     93.710175
     -4.509510     45.708108     45.708108     91.416217
     -4.499499     45.684177     45.684177     91.368354
     -4.489489     46.314974     46.314974     92.629947
     -4.479479     46.857107     46.857107     93.714213
     -4.469469     46.599187     46.599187     93.198375
     -4.459459     45.107695     45.107695     90.215389
     -4.449449     42.330236     42.330236     84.660472
     -4.439439     38.547877     38.547877     77.095754
     -4.429429     34.233800     34.233800     68.467601
     -4.419419     29.902641     29.902641     59.805282
     -4.409409     26.013579     26.013579     52.027157
     -4.399399     22.938384     22.938384     45.876768
     -4.389389     20.959299     20.959299     41.918599
     -4.379379     20.252163     20.252163     40.504325
     -4.369369     20.841229     20.841229     41.682458
     -4.359359     22.556072     22.556072     45.112145
     -4.349349     25.040237     25.040237     50.080475
     -4.339339     27.838315     27.838315     55.676629
     -4.329329     30.538759     30.538759     61.077519
     -4.319319     32.909663     32.909663     65.819326
     -4.309309     34.960962     34.960962     69.921924
     -4.299299     36.899585     36.899585     73.799170
     -4.289289     38.992063     38.992063     77.984127
     -4.279279     41.388041     41.388041     82.776083
     -4.269269     43.975716     43.975716     87.951431
     -4.259259     46.335121     46.335121     92.670241
     -4.249249     47.827325     47.827325     95.654649
     -4.239239     47.807722     47.807722     95.615444
     -4.229229     45.891390     45.891390     91.782781
     -4.219219     42.157048     42.157048     84.314097
     -4.209209     37.186054     37.186054     74.372107
     -4.199199     31.902024     31.902024     63.804049
     -4.189189     27.273066     27.273066     54.546131
     -4.179179     24.006902     24.006902     48.013805
     -4.169169     22.369386     22.369386     44.738771
     -4.159159     22.191481     22.191481     44.382963
     -4.149149     23.039032     23.039032     46.078063
     -4.139139     24.450751     24.450751     48.901503
     -4.129129     26.130272     26.130272     52.260545
     -4.119119     28.008049     28.008049     56.016098
     -4.109109     30.152195     30.152195     60.304390
     -4.099099     32.580585     32.580585     65.161170
     -4.089089     35.081767     35.081767     70.163533
     -4.079079     37.159676     37.159676     74.319353
     -4.069069     38.161066     38.161066     76.322131
     -4.059059     37.543883     37.543883     75.087766
     -4.049049     35.155300     35.155300     70.310600
     -4.039039     31.369784     31.369784     62.739568
     -4.029029     27.008827     27.008827     54.017654
     -4.019019     23.081554     23.081554     46.163109
     -4.009009     20.474572     20.474572     40.949145
     -3.998999     19.728429     19.728429     39.456857
     -3.988989     20.972428     20.972428     41.944856
     -3.978979     24.000402     24.000402     48.000804
     -3.968969     28.412880     28.412880     56.825761
     -3.958959     33.750018     33.750018     67.500037
     -3.948949     39.578678     39.578678     79.157355
     -3.938939     45.538555     45.538555     91.077109
     -3.928929     51.366158     51.366158    102.732316
     -3.918919     56.900212     56.900212    113.800424
     -3.908909     62.052647     62.052647    124.105295
     -3.898899     66.733457     66.733457    133.466914
     -3.888889     70.749347     70.749347    141.498693
     -3.878879     73.730691     73.730691    147.461383
     -3.868869     75.146579     75.146579    150.293159
     -3.858859     74.431709     74.431709    148.863418
     -3.848849     71.190203     71.190203    142.380407
     -3.838839     65.394989     65.394989    130.789979
     -3.828829     57.494208     57.494208    114.988415
     -3.818819     48.371437     48.371437     96.742874
     -3.808809     39.165054     39.165054     78.330108
     -3.798799     31.005428     31.005428     62.010855
     -3.788789     24.754785     24.754785     49.509569
     -3.778779     20.827049     20.827049     41.654097
     -3.768769     19.132718     19.132718     38.265437
     -3.758759     19.153404     19.153404     38.306808
     -3.748749     20.116583     20.116583     40.233165
     -3.738739     21.220663     21.220663     42.441327
     -3.728729     21.853835     21.853835     43.707671
     -3.718719     21.754552     21.754552     43.509105
     -3.708709     21.074110     21.074110     42.148220
     -3.698699     20.321440     20.321440     40.642880
     -3.688689     20.196695     20.196695     40.393389
     -3.678679     21.351610     21.351610     42.703220
     -3.668669     24.144421     24.144421     48.288842
     -3.658659     28.472321     28.472321     56.944643
     -3.648649     33.750492     33.750492     67.500985
     -3.638639     39.058217     39.058217     78.116434
     -3.628629     43.404442     43.404442     86.808884
     -3.618619     46.011233     46.011233     92.022466
     -3.608609     46.507208     46.507208     93.014416
     -3.598599     44.970854     44.970854     89.941707
     -3.588589     41.836092     41.836092     83.672184
     -3.578579     37.724327     37.724327     75.448653
     -3.568569     33.273014     33.273014     66.546028
     -3.558559     29.002542     29.002542     58.005085
     -3.548549     25.233951     25.233951     50.467902
     -3.538539     22.060419     22.060419     44.120838
     -3.528529     19.377721     19.377721     38.755442
     -3.518519     16.971958     16.971958     33.943916
     -3.508509     14.640099     14.640099     29.280198
     -3.498498     12.296997     12.296997     24.593994
     -3.488488     10.023886     10.023886     20.047771
     -3.478478      8.041783      8.041783     16.083566
     -3.468468      6.629516      6.629516     13.259032
     -3.458458      6.026287      6.026287     12.052573
     -3.448448      6.355015      6.355015     12.710030
     -3.438438      7.586055      7.586055     15.172110
     -3.428428      9.545964      9.545964     19.091928
     -3.418418     11.966930     11.966930     23.933861
     -3.408408     14.563675     14.563675     29.127349
     -3.398398     17.113663     17.113663     34.227325
     -3.388388     19.510883     19.510883     39.021767
     -3.378378     21.773376     21.773376     43.546752
     -3.368368     24.008038     24.008038     48.016075
     -3.358358     26.355981     26.355981     52.711963
     -3.348348     28.940906     28.940906     57.881811
     -3.338338     31.823653     31.823653     63.647306
     -3.328328     34.950989     34.950989     69.901978
     -3.318318     38.097260     38.097260     76.194520
     -3.308308     40.830056     40.830056     81.660112
     -3.298298     42.553124     42.553124     85.106249
     -3.288288     42.658132     42.658132     85.316264
     -3.278278     40.751816     40.751816     81.503632
     -3.268268     36.859294     36.859294     73.718588
     -3.258258     31.491995     31.491995     62.983989
     -3.248248     25.528503     25.528503     51.057006
     -3.238238     19.952330     19.952330     39.904660
     -3.228228     15.559561     15.559561     31.119122
     -3.218218     12.752458     12.752458     25.504916
     -3.208208     11.482740     11.482740     22.965481
     -3.198198     11.341799     11.341799     22.683599
     -3.188188     11.748794     11.748794     23.497588
     -3.178178     12.169426     12.169426     24.338851
     -3.168168     12.299198     12.299198     24.598397
     -3.158158     12.158082     12.158082     24.316165
     -3.148148     12.068474     12.068474     24.136947
     -3.138138     12.523416     12.523416     25.046832
     -3.128128     13.987698     13.987698     27.975396
     -3.118118     16.697703     16.697703     33.395407
     -3.108108     20.528832     20.528832     41.057664
     -3.098098     24.981070     24.981070     49.962141
     -3.088088     29.297003     29.297003     58.594006
     -3.078078     32.679095     32.679095     65.358189
     -3.068068     34.529236     34.529236     69.058472
     -3.058058     34.615870     34.615870     69.231740
     -3.048048     33.100334     33.100334     66.200668
     -3.038038     30.419370     30.419370     60.838740
     -3.028028     27.091881     27.091881     54.183763
     -3.018018     23.551704     23.551704     47.103408
     -3.008008     20.082459     20.082459     40.164917
     -2.997998     16.863236     16.863236     33.726471
     -2.987988     14.070136     14.070136     28.140272
     -2.977978     11.956898     11.956898     23.913796
     -2.967968     10.863021     10.863021     21.726043
     -2.957958     11.144042     11.144042     22.288084
     -2.947948     13.055014     13.055014     26.110028
     -2.937938     16.631830     16.631830     33.263659
     -2.927928     21.612035     21.612035     43.224070
     -2.917918     27.427322     27.427322     54.854643
     -2.907908     33.285373     33.285373     66.570746
     -2.897898     38.334512     38.334512     76.669023
     -2.887888     41.871579     41.871579     83.743158
     -2.877878     43.524955     43.524955     87.049910
     -2.867868     43.340053     43.340053     86.680107
     -2.857858     41.725422     41.725422     83.450843
     -2.847848     39.275599     39.275599     78.551198
     -2.837838     36.544956     36.544956     73.089913
     -2.827828     33.872379     33.872379     67.744758
     -2.817818     31.331896     31.331896     62.663791
     -2.807808     28.819351     28.819351     57.638701
     -2.797798     26.214840     26.214840     52.429680
     -2.787788     23.524631     23.524631     47.049263
     -2.777778     20.925043     20.925043     41.850087
     -2.767768     18.692483     18.692483     37.384965
     -2.757758     17.071614     17.071614     34.143227
     -2.747748     16.167277     16.167277     32.334555
     -2.737738     15.925569     15.925569     31.851138
     -2.727728     16.208268     16.208268     32.416536
     -2.717718     16.901687     16.901687     33.803374
     -2.707708     17.978152     17.978152     35.956304
     -2.697698     19.463350     19.463350     38.926701
     -2.687688     21.333931     21.333931     42.667862
     -2.677678     23.427211     23.427211     46.854422
     -2.667668     25.444396     25.444396     50.888792
     -2.657658     27.065784     27.065784     54.131568
     -2.647648     28.113496     28.113496     56.226992
     -2.637638     28.655512     28.655512     57.311024
     -2.627628     28.977518     28.977518     57.955037
     -2.617618     29.434585     29.434585     58.869170
     -2.607608     30.270854     30.270854     60.541709
     -2.597598     31.508079     31.508079     63.016158
     -2.587588     32.948872     32.948872     65.897745
     -2.577578     34.265135     34.265135     68.530271
     -2.567568     35.103878     35.103878     70.207756
     -2.557558     35.162343     35.162343     70.324686
     -2.547548     34.232722     34.232722     68.465445
     -2.537538     32.245085     32.245085     64.490170
     -2.527528     29.321910     29.321910     58.643819
     -2.517518     25.818683     25.818683     51.637365
     -2.507508     22.303518     22.303518     44.607036
     -2.497497     19.448277     19.448277     38.896554
     -2.487487     17.851982     17.851982     35.703965
     -2.477477     17.860478     17.860478     35.720957
     -2.467467     19.457228     19.457228     38.914455
     -2.457457     22.274385     22.274385     44.548771
     -2.447447     25.725068     25.725068     51.450135
     -2.437437     29.207717     29.207717     58.415434
     -2.427427     32.301021     32.301021     64.602042
     -2.417417     34.867195     34.867195     69.734390
     -2.407407     37.016894     37.016894     74.033789
     -2.397397     38.949949     38.949949     77.899899
     -2.387387     40.747578     40.747578     81.495156
     -2.377377     42.223601     42.223601     84.447202
     -2.367367     42.923062     42.923062     85.846123
     -2.357357     42.287896     42.287896     84.575792
     -2.347347     39.920988     39.920988     79.841976
     -2.337337     35.820864     35.820864     71.641728
     -2.327327     30.468282     30.468282     60.936565
     -2.317317     24.721802     24.721802     49.443605
     -2.307307     19.576105     19.576105     39.152211
     -2.297297     15.895108     15.895108     31.790216
     -2.287287     14.222635     14.222635     28.445271
     -2.277277     14.715387     14.715387     29.430775
     -2.267267     17.181282     17.181282     34.362564
     -2.257257     21.175008     21.175008     42.350016
     -2.247247     26.105452     26.105452     52.210905
     -2.237237     31.328996     31.328996     62.657991
     -2.227227     36.220624     36.220624     72.441248
     -2.217217     40.225155     40.225155     80.450311
     -2.207207     42.896136     42.896136     85.792273
     -2.197197     43.932338     43.932338     87.864677
     -2.187187     43.218542     43.218542     86.437084
     -2.177177     40.864869     40.864869     81.729738
     -2.167167     37.221176     37.221176     74.442352
     -2.157157     32.834557     32.834557     65.669114
     -2.147147     28.334506     28.334506     56.669013
     -2.137137     24.271019     24.271019     48.542037
     -2.127127     20.971171     20.971171     41.942342
     -2.117117     18.485647     18.485647     36.971293
     -2.107107     16.654464     16.654464     33.308928
     -2.097097     15.253371     15.253371     30.506742
     -2.087087     14.134580     14.134580     28.269160
     -2.077077     13.281856     13.281856     26.563713
     -2.067067     12.757084     12.757084     25.514168
     -2.057057     12.584858     12.584858     25.169716
     -2.047047     12.658121     12.658121     25.316242
     -2.037037     12.729942     12.729942     25.459884
     -2.027027     12.499166     12.499166     24.998331
     -2.017017     11.739543     11.739543     23.479085
     -2.007007     10.399171     10.399171     20.798342
     -1.996997      8.620213      8.620213     17.240425
     -1.986987      6.678599      6.678599     13.357198
     -1.976977      4.885930      4.885930      9.771859
     -1.966967      3.506469      3.506469      7.012938
     -1.956957      2.720431      2.720431      5.440862
     -1.946947      2.630163      2.630163      5.260327
     -1.936937      3.281950      3.281950      6.563900
     -1.926927      4.674982      4.674982      9.349964
     -1.916917      6.746940      6.746940     13.493880
     -1.906907      9.348307      9.348307     18.696614
     -1.896897     12.230129     12.230129     24.460257
     -1.886887     15.065270     15.065270     30.130541
     -1.876877     17.505518     17.505518     35.011036
     -1.866867     19.258167     19.258167     38.516334
     -1.856857     20.156739     20.156739     40.313477
     -1.846847     20.202874     20.202874     40.405748
     -1.836837     19.564594     19.564594     39.129188
     -1.826827     18.525636     18.525636     37.051272
     -1.816817     17.393504     17.393504     34.787008
     -1.806807     16.392347     16.392347     32.784695
     -1.796797     15.583255     15.583255     31.166511
     -1.786787     14.852988     14.852988     29.705977
     -1.776777     13.983530     13.983530     27.967060
     -1.766767     12.771424     12.771424     25.542848
     -1.756757     11.136329     11.136329     22.272658
     -1.746747      9.165016      9.165016     18.330033
     -1.736737      7.076435      7.076435     14.152870
     -1.726727      5.137925      5.137925     10.275850
     -1.716717      3.582955      3.582955      7.165910
     -1.706707      2.567596      2.567596      5.135192
     -1.696697      2.170672      2.170672      4.341345
     -1.686687      2.414718      2.414718      4.829437
     -1.676677      3.277737      3.277737      6.555475
     -1.666667      4.680247      4.680247      9.360494
     -1.656657      6.457113      6.457113     12.914226
     -1.646647      8.343195      8.343195     16.686390
     -1.636637     10.002784     10.002784     20.005567
     -1.626627     11.111933     11.111933     22.223867
