# EIG2DOS: Utility for SIESTA to obtain the electronic density of states
#  E. Artacho, Apr 1999, A. Garcia, Apr 2012
#  Nick R. Papior, Feb 2017
# ------------------------------------------
# Eigenvalues calculated from a non-polarized calculation
# Eigenvalues read from siesta.EIG
# Kpoint weights read from siesta.KP
# Using smearing parameter:   0.0500
# Using 1000 points in the energy range
# Selected bands: 1 to: 2981
# Emin, Emax in file for selected band(s):    -27.1536430    218.3410030
# Nbands, Nspin, Nk   =   2981     1     1
# E_F                 =    -4.2647 eV --> (shifted to ZERO)
# Broadening          =     0.0500 eV
#
#        E            N(up)  (=)   N(down)         Ntot
     -5.000000     36.630909     36.630909     73.261817
     -4.989990     39.641659     39.641659     79.283318
     -4.979980     41.887799     41.887799     83.775597
     -4.969970     43.005077     43.005077     86.010154
     -4.959960     42.814902     42.814902     85.629804
     -4.949950     41.363066     41.363066     82.726132
     -4.939940     38.913754     38.913754     77.827507
     -4.929930     35.913781     35.913781     71.827562
     -4.919920     32.945744     32.945744     65.891489
     -4.909910     30.674906     30.674906     61.349812
     -4.899900     29.772887     29.772887     59.545774
     -4.889890     30.792017     30.792017     61.584035
     -4.879880     33.986732     33.986732     67.973463
     -4.869870     39.131069     39.131069     78.262137
     -4.859860     45.430821     45.430821     90.861642
     -4.849850     51.627277     51.627277    103.254555
     -4.839840     56.313703     56.313703    112.627406
     -4.829830     58.367586     58.367586    116.735171
     -4.819820     57.316338     57.316338    114.632676
     -4.809810     53.467271     53.467271    106.934542
     -4.799800     47.746604     47.746604     95.493209
     -4.789790     41.338122     41.338122     82.676243
     -4.779780     35.298400     35.298400     70.596799
     -4.769770     30.305960     30.305960     60.611919
     -4.759760     26.604453     26.604453     53.208906
     -4.749750     24.097926     24.097926     48.195851
     -4.739740     22.507093     22.507093     45.014186
     -4.729730     21.507047     21.507047     43.014095
     -4.719720     20.808259     20.808259     41.616517
     -4.709710     20.181687     20.181687     40.363374
     -4.699700     19.452144     19.452144     38.904287
     -4.689690     18.492122     18.492122     36.984243
     -4.679680     17.241710     17.241710     34.483420
     -4.669670     15.758993     15.758993     31.517986
     -4.659660     14.277596     14.277596     28.555192
     -4.649650     13.230059     13.230059     26.460119
     -4.639640     13.199879     13.199879     26.399757
     -4.629630     14.790014     14.790014     29.580028
     -4.619620     18.430058     18.430058     36.860116
     -4.609610     24.176958     24.176958     48.353917
     -4.599600     31.586241     31.586241     63.172482
     -4.589590     39.729525     39.729525     79.459050
     -4.579580     47.395173     47.395173     94.790346
     -4.569570     53.432588     53.432588    106.865177
     -4.559560     57.118348     57.118348    114.236696
     -4.549550     58.386420     58.386420    116.772840
     -4.539540     57.811180     57.811180    115.622361
     -4.529530     56.345713     56.345713    112.691427
     -4.519520     54.935499     54.935499    109.870999
     -4.509510     54.180002     54.180002    108.360004
     -4.499499     54.175189     54.175189    108.350378
     -4.489489     54.569965     54.569965    109.139930
     -4.479479     54.771463     54.771463    109.542926
     -4.469469     54.188227     54.188227    108.376454
     -4.459459     52.416361     52.416361    104.832722
     -4.449449     49.325711     49.325711     98.651422
     -4.439439     45.054777     45.054777     90.109554
     -4.429429     39.951245     39.951245     79.902489
     -4.419419     34.496418     34.496418     68.992836
     -4.409409     29.235425     29.235425     58.470850
     -4.399399     24.714004     24.714004     49.428008
     -4.389389     21.410008     21.410008     42.820017
     -4.379379     19.652550     19.652550     39.305101
     -4.369369     19.542240     19.542240     39.084480
     -4.359359     20.907180     20.907180     41.814359
     -4.349349     23.331168     23.331168     46.662336
     -4.339339     26.264172     26.264172     52.528343
     -4.329329     29.183123     29.183123     58.366247
     -4.319319     31.740538     31.740538     63.481076
     -4.309309     33.840692     33.840692     67.681384
     -4.299299     35.616935     35.616935     71.233871
     -4.289289     37.326560     37.326560     74.653120
     -4.279279     39.206805     39.206805     78.413610
     -4.269269     41.339807     41.339807     82.679614
     -4.259259     43.566865     43.566865     87.133730
     -4.249249     45.484843     45.484843     90.969685
     -4.239239     46.545119     46.545119     93.090238
     -4.229229     46.243773     46.243773     92.487545
     -4.219219     44.341220     44.341220     88.682440
     -4.209209     41.010522     41.010522     82.021043
     -4.199199     36.825920     36.825920     73.651840
     -4.189189     32.576964     32.576964     65.153928
     -4.179179     28.989432     28.989432     57.978863
     -4.169169     26.488701     26.488701     52.977403
     -4.159159     25.116841     25.116841     50.233682
     -4.149149     24.628620     24.628620     49.257239
     -4.139139     24.698931     24.698931     49.397862
     -4.129129     25.125139     25.125139     50.250278
     -4.119119     25.919824     25.919824     51.839649
     -4.109109     27.248296     27.248296     54.496592
     -4.099099     29.243561     29.243561     58.487121
     -4.089089     31.798736     31.798736     63.597473
     -4.079079     34.461922     34.461922     68.923845
     -4.069069     36.518819     36.518819     73.037638
     -4.059059     37.251138     37.251138     74.502277
     -4.049049     36.252720     36.252720     72.505440
     -4.039039     33.638468     33.638468     67.276936
     -4.029029     30.032267     30.032267     60.064535
     -4.019019     26.342152     26.342152     52.684304
     -4.009009     23.445727     23.445727     46.891454
     -3.998999     21.943021     21.943021     43.886043
     -3.988989     22.072641     22.072641     44.145283
     -3.978979     23.780642     23.780642     47.561285
     -3.968969     26.854049     26.854049     53.708097
     -3.958959     31.026234     31.026234     62.052467
     -3.948949     36.016805     36.016805     72.033610
     -3.938939     41.531787     41.531787     83.063574
     -3.928929     47.271918     47.271918     94.543837
     -3.918919     52.968447     52.968447    105.936894
     -3.908909     58.419743     58.419743    116.839487
     -3.898899     63.482809     63.482809    126.965617
     -3.888889     68.000493     68.000493    136.000986
     -3.878879     71.698312     71.698312    143.396624
     -3.868869     74.123319     74.123319    148.246637
     -3.858859     74.690794     74.690794    149.381587
     -3.848849     72.852115     72.852115    145.704229
     -3.838839     68.327754     68.327754    136.655508
     -3.828829     61.302693     61.302693    122.605387
     -3.818819     52.485756     52.485756    104.971513
     -3.808809     42.989756     42.989756     85.979513
     -3.798799     34.067494     34.067494     68.134989
     -3.788789     26.798792     26.798792     53.597585
     -3.778779     21.837425     21.837425     43.674850
     -3.768769     19.293753     19.293753     38.587506
     -3.758759     18.772920     18.772920     37.545839
     -3.748749     19.538578     19.538578     39.077157
     -3.738739     20.744664     20.744664     41.489329
     -3.728729     21.672360     21.672360     43.344721
     -3.718719     21.917260     21.917260     43.834519
     -3.708709     21.485243     21.485243     42.970487
     -3.698699     20.772966     20.772966     41.545931
     -3.688689     20.431993     20.431993     40.863986
     -3.678679     21.145455     21.145455     42.290910
     -3.668669     23.377616     23.377616     46.755233
     -3.658659     27.177718     27.177718     54.355436
     -3.648649     32.113899     32.113899     64.227798
     -3.638639     37.372334     37.372334     74.744668
     -3.628629     41.991183     41.991183     83.982367
     -3.618619     45.139396     45.139396     90.278792
     -3.608609     46.332142     46.332142     92.664285
     -3.598599     45.511156     45.511156     91.022312
     -3.588589     42.986863     42.986863     85.973726
     -3.578579     39.295777     39.295777     78.591555
     -3.568569     35.040412     35.040412     70.080823
     -3.558559     30.755524     30.755524     61.511048
     -3.548549     26.815544     26.815544     53.631088
     -3.538539     23.387775     23.387775     46.775550
     -3.528529     20.440148     20.440148     40.880296
     -3.518519     17.808808     17.808808     35.617617
     -3.508509     15.308767     15.308767     30.617535
     -3.498498     12.844524     12.844524     25.689047
     -3.488488     10.471758     10.471758     20.943515
     -3.478478      8.384804      8.384804     16.769608
     -3.468468      6.841577      6.841577     13.683154
     -3.458458      6.062789      6.062789     12.125579
     -3.448448      6.144239      6.144239     12.288478
     -3.438438      7.007968      7.007968     14.015936
     -3.428428      8.404928      8.404928     16.809856
     -3.418418      9.972981      9.972981     19.945962
     -3.408408     11.342752     11.342752     22.685504
     -3.398398     12.264873     12.264873     24.529746
     -3.388388     12.713348     12.713348     25.426696
     -3.378378     12.918156     12.918156     25.836312
     -3.368368     13.304940     13.304940     26.609880
     -3.358358     14.360031     14.360031     28.720062
     -3.348348     16.470372     16.470372     32.940744
     -3.338338     19.791186     19.791186     39.582373
     -3.328328     24.172707     24.172707     48.345413
     -3.318318     29.152402     29.152402     58.304805
     -3.308308     34.010170     34.010170     68.020339
     -3.298298     37.888428     37.888428     75.776855
     -3.288288     39.975488     39.975488     79.950975
     -3.278278     39.722855     39.722855     79.445711
     -3.268268     37.027985     37.027985     74.055971
     -3.258258     32.299993     32.299993     64.599987
     -3.248248     26.363402     26.363402     52.726805
     -3.238238     20.229866     20.229866     40.459731
     -3.228228     14.830985     14.830985     29.661969
     -3.218218     10.813839     10.813839     21.627677
     -3.208208      8.454069      8.454069     16.908138
     -3.198198      7.678908      7.678908     15.357816
     -3.188188      8.157556      8.157556     16.315111
     -3.178178      9.420748      9.420748     18.841495
     -3.168168     10.992897     10.992897     21.985794
     -3.158158     12.528196     12.528196     25.056392
     -3.148148     13.926625     13.926625     27.853250
     -3.138138     15.384404     15.384404     30.768807
     -3.128128     17.333894     17.333894     34.667787
     -3.118118     20.263844     20.263844     40.527687
     -3.108108     24.469618     24.469618     48.939236
     -3.098098     29.832997     29.832997     59.665994
     -3.088088     35.740312     35.740312     71.480625
     -3.078078     41.201461     41.201461     82.402922
     -3.068068     45.144141     45.144141     90.288282
     -3.058058     46.767871     46.767871     93.535742
     -3.048048     45.802232     45.802232     91.604463
     -3.038038     42.554930     42.554930     85.109860
     -3.028028     37.742054     37.742054     75.484108
     -3.018018     32.203780     32.203780     64.407561
     -3.008008     26.655045     26.655045     53.310089
     -2.997998     21.576906     21.576906     43.153812
     -2.987988     17.257173     17.257173     34.514345
     -2.977978     13.906334     13.906334     27.812667
     -2.967968     11.753438     11.753438     23.506875
     -2.957958     11.062696     11.062696     22.125393
     -2.947948     12.067245     12.067245     24.134491
     -2.937938     14.856602     14.856602     29.713205
     -2.927928     19.268845     19.268845     38.537691
     -2.917918     24.835620     24.835620     49.671240
     -2.907908     30.815085     30.815085     61.630170
     -2.897898     36.323705     36.323705     72.647410
     -2.887888     40.541304     40.541304     81.082607
     -2.877878     42.925630     42.925630     85.851261
     -2.867868     43.354105     43.354105     86.708209
     -2.857858     42.128998     42.128998     84.257996
     -2.847848     39.836609     39.836609     79.673218
     -2.837838     37.116887     37.116887     74.233774
     -2.827828     34.442905     34.442905     68.885811
     -2.817818     32.004563     32.004563     64.009126
     -2.807808     29.738211     29.738211     59.476423
     -2.797798     27.470331     27.470331     54.940663
     -2.787788     25.088267     25.088267     50.176534
     -2.777778     22.644181     22.644181     45.288362
     -2.767768     20.342866     20.342866     40.685732
     -2.757758     18.434024     18.434024     36.868048
     -2.747748     17.084381     17.084381     34.168761
     -2.737738     16.312247     16.312247     32.624495
     -2.727728     16.022562     16.022562     32.045124
     -2.717718     16.111752     16.111752     32.223504
     -2.707708     16.563493     16.563493     33.126985
     -2.697698     17.461842     17.461842     34.923684
     -2.687688     18.906070     18.906070     37.812139
     -2.677678     20.883995     20.883995     41.767990
     -2.667668     23.197031     23.197031     46.394063
     -2.657658     25.501631     25.501631     51.003261
     -2.647648     27.454352     27.454352     54.908704
     -2.637638     28.873998     28.873998     57.747995
     -2.627628     29.817760     29.817760     59.635519
     -2.617618     30.523356     30.523356     61.046712
     -2.607608     31.257151     31.257151     62.514302
     -2.597598     32.165103     32.165103     64.330206
     -2.587588     33.209238     33.209238     66.418476
     -2.577578     34.203654     34.203654     68.407308
     -2.567568     34.899102     34.899102     69.798203
     -2.557558     35.053663     35.053663     70.107326
     -2.547548     34.468347     34.468347     68.936694
     -2.537538     33.013786     33.013786     66.027572
     -2.527528     30.680731     30.680731     61.361463
     -2.517518     27.648561     27.648561     55.297121
     -2.507508     24.322356     24.322356     48.644712
     -2.497497     21.284434     21.284434     42.568869
     -2.487487     19.149443     19.149443     38.298886
     -2.477477     18.372352     18.372352     36.744705
     -2.467467     19.093898     19.093898     38.187796
     -2.457457     21.096772     21.096772     42.193544
     -2.447447     23.896543     23.896543     47.793086
     -2.437437     26.930479     26.930479     53.860957
     -2.427427     29.763305     29.763305     59.526610
     -2.417417     32.220118     32.220118     64.440235
     -2.407407     34.387316     34.387316     68.774632
     -2.397397     36.480571     36.480571     72.961142
     -2.387387     38.640491     38.640491     77.280981
     -2.377377     40.754998     40.754998     81.509997
     -2.367367     42.403381     42.403381     84.806762
     -2.357357     42.967003     42.967003     85.934007
     -2.347347     41.872942     41.872942     83.745883
     -2.337337     38.865469     38.865469     77.730939
     -2.327327     34.177332     34.177332     68.354664
     -2.317317     28.517251     28.517251     57.034502
     -2.307307     22.880119     22.880119     45.760237
     -2.297297     18.268522     18.268522     36.537043
     -2.287287     15.441389     15.441389     30.882778
     -2.277277     14.770785     14.770785     29.541570
     -2.267267     16.224555     16.224555     32.449111
     -2.257257     19.442755     19.442755     38.885510
     -2.247247     23.858862     23.858862     47.717724
     -2.237237     28.824322     28.824322     57.648644
     -2.227227     33.709584     33.709584     67.419168
     -2.217217     37.968050     37.968050     75.936101
     -2.207207     41.163251     41.163251     82.326501
     -2.197197     42.975156     42.975156     85.950313
     -2.187187     43.210956     43.210956     86.421912
     -2.177177     41.837314     41.837314     83.674628
     -2.167167     39.023884     39.023884     78.047769
     -2.157157     35.158986     35.158986     70.317972
     -2.147147     30.794430     30.794430     61.588861
     -2.137137     26.510468     26.510468     53.020936
     -2.127127     22.746259     22.746259     45.492518
     -2.117117     19.676605     19.676605     39.353209
     -2.107107     17.200731     17.200731     34.401462
     -2.097097     15.048641     15.048641     30.097283
     -2.087087     12.944810     12.944810     25.889621
     -2.077077     10.742157     10.742157     21.484313
     -2.067067      8.466287      8.466287     16.932574
     -2.057057      6.267715      6.267715     12.535429
     -2.047047      4.327723      4.327723      8.655446
     -2.037037      2.775155      2.775155      5.550310
     -2.027027      1.649075      1.649075      3.298149
     -2.017017      0.908739      0.908739      1.817478
     -2.007007      0.470078      0.470078      0.940156
     -1.996997      0.244873      0.244873      0.489745
     -1.986987      0.168797      0.168797      0.337594
     -1.976977      0.216223      0.216223      0.432446
     -1.966967      0.405686      0.405686      0.811372
     -1.956957      0.799005      0.799005      1.598011
     -1.946947      1.492605      1.492605      2.985210
     -1.936937      2.596543      2.596543      5.193085
     -1.926927      4.199004      4.199004      8.398007
     -1.916917      6.322152      6.322152     12.644304
     -1.906907      8.885027      8.885027     17.770053
     -1.896897     11.693009     11.693009     23.386017
     -1.886887     14.465859     14.465859     28.931717
     -1.876877     16.899853     16.899853     33.799705
     -1.866867     18.744303     18.744303     37.488605
     -1.856857     19.868256     19.868256     39.736511
     -1.846847     20.299482     20.299482     40.598965
     -1.836837     20.226238     20.226238     40.452475
     -1.826827     19.956268     19.956268     39.912536
     -1.816817     19.831597     19.831597     39.663194
     -1.806807     20.111385     20.111385     40.222770
     -1.796797     20.858532     20.858532     41.717063
     -1.786787     21.882043     21.882043     43.764087
     -1.776777     22.776244     22.776244     45.552487
     -1.766767     23.056277     23.056277     46.112554
     -1.756757     22.338715     22.338715     44.677430
     -1.746747     20.488866     20.488866     40.977731
     -1.736737     17.671481     17.671481     35.342963
     -1.726727     14.290298     14.290298     28.580596
     -1.716717     10.854574     10.854574     21.709148
     -1.706707      7.837638      7.837638     15.675275
     -1.696697      5.581873      5.581873     11.163745
     -1.686687      4.268362      4.268362      8.536723
     -1.676677      3.932524      3.932524      7.865047
     -1.666667      4.491089      4.491089      8.982179
     -1.656657      5.756735      5.756735     11.513471
     -1.646647      7.443215      7.443215     14.886429
     -1.636637      9.185205      9.185205     18.370409
     -1.626627     10.596676     10.596676     21.193351
