# EIG2DOS: Utility for SIESTA to obtain the electronic density of states
#  E. Artacho, Apr 1999, A. Garcia, Apr 2012
#  Nick R. Papior, Feb 2017
# ------------------------------------------
# Eigenvalues calculated from a non-polarized calculation
# Eigenvalues read from siesta.EIG
# Kpoint weights read from siesta.KP
# Using smearing parameter:   0.0500
# Using 1000 points in the energy range
# Selected bands: 1 to: 2981
# Emin, Emax in file for selected band(s):    -27.0832730    218.3507110
# Nbands, Nspin, Nk   =   2981     1     1
# E_F                 =    -4.2533 eV --> (shifted to ZERO)
# Broadening          =     0.0500 eV
#
#        E            N(up)  (=)   N(down)         Ntot
     -5.000000     33.510876     33.510876     67.021751
     -4.989990     37.409046     37.409046     74.818092
     -4.979980     40.885730     40.885730     81.771460
     -4.969970     43.367650     43.367650     86.735301
     -4.959960     44.413739     44.413739     88.827478
     -4.949950     43.842933     43.842933     87.685866
     -4.939940     41.794750     41.794750     83.589499
     -4.929930     38.709511     38.709511     77.419022
     -4.919920     35.250445     35.250445     70.500890
     -4.909910     32.200883     32.200883     64.401766
     -4.899900     30.352003     30.352003     60.704007
     -4.889890     30.370917     30.370917     60.741833
     -4.879880     32.636921     32.636921     65.273841
     -4.869870     37.069635     37.069635     74.139270
     -4.859860     43.023976     43.023976     86.047952
     -4.849850     49.345543     49.345543     98.691085
     -4.839840     54.630552     54.630552    109.261105
     -4.829830     57.630415     57.630415    115.260830
     -4.819820     57.644799     57.644799    115.289598
     -4.809810     54.728621     54.728621    109.457242
     -4.799800     49.620983     49.620983     99.241965
     -4.789790     43.441375     43.441375     86.882750
     -4.779780     37.305348     37.305348     74.610697
     -4.769770     32.026045     32.026045     64.052091
     -4.759760     27.993562     27.993562     55.987124
     -4.749750     25.221018     25.221018     50.442036
     -4.739740     23.479512     23.479512     46.959023
     -4.729730     22.438394     22.438394     44.876787
     -4.719720     21.762564     21.762564     43.525129
     -4.709710     21.159845     21.159845     42.319689
     -4.699700     20.397557     20.397557     40.795114
     -4.689690     19.314836     19.314836     38.629671
     -4.679680     17.849577     17.849577     35.699154
     -4.669670     16.081011     16.081011     32.162022
     -4.659660     14.268650     14.268650     28.537301
     -4.649650     12.857288     12.857288     25.714575
     -4.639640     12.423001     12.423001     24.846001
     -4.629630     13.553800     13.553800     27.107600
     -4.619620     16.681918     16.681918     33.363836
     -4.609610     21.907035     21.907035     43.814070
     -4.599600     28.868438     28.868438     57.736877
     -4.589590     36.731601     36.731601     73.463201
     -4.579580     44.335706     44.335706     88.671412
     -4.569570     50.493856     50.493856    100.987712
     -4.559560     54.361584     54.361584    108.723168
     -4.549550     55.732127     55.732127    111.464253
     -4.539540     55.120685     55.120685    110.241370
     -4.529530     53.576903     53.576903    107.153807
     -4.519520     52.283569     52.283569    104.567139
     -4.509510     52.101062     52.101062    104.202123
     -4.499499     53.247708     53.247708    106.495416
     -4.489489     55.247512     55.247512    110.495025
     -4.479479     57.155701     57.155701    114.311402
     -4.469469     57.949136     57.949136    115.898272
     -4.459459     56.904882     56.904882    113.809764
     -4.449449     53.815872     53.815872    107.631743
     -4.439439     48.987786     48.987786     97.975572
     -4.429429     43.068875     43.068875     86.137750
     -4.419419     36.825797     36.825797     73.651595
     -4.409409     30.968351     30.968351     61.936702
     -4.399399     26.064074     26.064074     52.128148
     -4.389389     22.517780     22.517780     45.035560
     -4.379379     20.563786     20.563786     41.127573
     -4.369369     20.240173     20.240173     40.480345
     -4.359359     21.359577     21.359577     42.719154
     -4.349349     23.520011     23.520011     47.040022
     -4.339339     26.188046     26.188046     52.376093
     -4.329329     28.843786     28.843786     57.687573
     -4.319319     31.134247     31.134247     62.268494
     -4.309309     32.969029     32.969029     65.938059
     -4.299299     34.515991     34.515991     69.031981
     -4.289289     36.097146     36.097146     72.194293
     -4.279279     38.022050     38.022050     76.044100
     -4.269269     40.415244     40.415244     80.830487
     -4.259259     43.098330     43.098330     86.196661
     -4.249249     45.579237     45.579237     91.158474
     -4.239239     47.175778     47.175778     94.351556
     -4.229229     47.251322     47.251322     94.502643
     -4.219219     45.479326     45.479326     90.958651
     -4.209209     42.016854     42.016854     84.033708
     -4.199199     37.491558     37.491558     74.983116
     -4.189189     32.793086     32.793086     65.586173
     -4.179179     28.762159     28.762159     57.524318
     -4.169169     25.923962     25.923962     51.847924
     -4.159159     24.383258     24.383258     48.766517
     -4.149149     23.908284     23.908284     47.816567
     -4.139139     24.136500     24.136500     48.272999
     -4.129129     24.787389     24.787389     49.574777
     -4.119119     25.779402     25.779402     51.558803
     -4.109109     27.202449     27.202449     54.404897
     -4.099099     29.166829     29.166829     58.333658
     -4.089089     31.610222     31.610222     63.220444
     -4.079079     34.173713     34.173713     68.347426
     -4.069069     36.235611     36.235611     72.471222
     -4.059059     37.115718     37.115718     74.231436
     -4.049049     36.365055     36.365055     72.730109
     -4.039039     33.995228     33.995228     67.990455
     -4.029029     30.523283     30.523283     61.046566
     -4.019019     26.805624     26.805624     53.611248
     -4.009009     23.748059     23.748059     47.496117
     -3.998999     22.036210     22.036210     44.072421
     -3.988989     21.999671     21.999671     43.999343
     -3.978979     23.633384     23.633384     47.266769
     -3.968969     26.714873     26.714873     53.429745
     -3.958959     30.927743     30.927743     61.855486
     -3.948949     35.935801     35.935801     71.871603
     -3.938939     41.410129     41.410129     82.820258
     -3.928929     47.045164     47.045164     94.090328
     -3.918919     52.587949     52.587949    105.175897
     -3.908909     57.866462     57.866462    115.732924
     -3.898899     62.778619     62.778619    125.557237
     -3.888889     67.219256     67.219256    134.438513
     -3.878879     70.969671     70.969671    141.939342
     -3.868869     73.617470     73.617470    147.234940
     -3.858859     74.578919     74.578919    149.157839
     -3.848849     73.251664     73.251664    146.503328
     -3.838839     69.254336     69.254336    138.508673
     -3.828829     62.651421     62.651421    125.302842
     -3.818819     54.052745     54.052745    108.105490
     -3.808809     44.526332     44.526332     89.052664
     -3.798799     35.346222     35.346222     70.692445
     -3.788789     27.668308     27.668308     55.336616
     -3.778779     22.250939     22.250939     44.501878
     -3.768769     19.307487     19.307487     38.614974
     -3.758759     18.519505     18.519505     37.039010
     -3.748749     19.184774     19.184774     38.369549
     -3.738739     20.444031     20.444031     40.888062
     -3.728729     21.523667     21.523667     43.047334
     -3.718719     21.938597     21.938597     43.877194
     -3.708709     21.611227     21.611227     43.222454
     -3.698699     20.877444     20.877444     41.754888
     -3.688689     20.371703     20.371703     40.743405
     -3.678679     20.812535     20.812535     41.625071
     -3.668669     22.743502     22.743502     45.487003
     -3.658659     26.311090     26.311090     52.622180
     -3.648649     31.163533     31.163533     62.327066
     -3.638639     36.520219     36.520219     73.040438
     -3.628629     41.395372     41.395372     82.790744
     -3.618619     44.890899     44.890899     89.781797
     -3.608609     46.441738     46.441738     92.883476
     -3.598599     45.925284     45.925284     91.850567
     -3.588589     43.617935     43.617935     87.235870
     -3.578579     40.049992     40.049992     80.099984
     -3.568569     35.834631     35.834631     71.669261
     -3.558559     31.525166     31.525166     63.050333
     -3.548549     27.519177     27.519177     55.038354
     -3.538539     24.010194     24.010194     48.020388
     -3.528529     20.990471     20.990471     41.980941
     -3.518519     18.309948     18.309948     36.619896
     -3.508509     15.780088     15.780088     31.560176
     -3.498498     13.285277     13.285277     26.570554
     -3.488488     10.853704     10.853704     21.707408
     -3.478478      8.657806      8.657806     17.315612
     -3.468468      6.949863      6.949863     13.899725
     -3.458458      5.966096      5.966096     11.932193
     -3.448448      5.837582      5.837582     11.675164
     -3.438438      6.534258      6.534258     13.068516
     -3.428428      7.854848      7.854848     15.709695
     -3.418418      9.467995      9.467995     18.935991
     -3.408408     11.002211     11.002211     22.004421
     -3.398398     12.165946     12.165946     24.331891
     -3.388388     12.858328     12.858328     25.716657
     -3.378378     13.222499     13.222499     26.444997
     -3.368368     13.611261     13.611261     27.222522
     -3.358358     14.473723     14.473723     28.947446
     -3.348348     16.207532     16.207532     32.415064
     -3.338338     19.030020     19.030020     38.060041
     -3.328328     22.900327     22.900327     45.800653
     -3.318318     27.495428     27.495428     54.990856
     -3.308308     32.232449     32.232449     64.464898
     -3.298298     36.341741     36.341741     72.683483
     -3.288288     39.005790     39.005790     78.011580
     -3.278278     39.559547     39.559547     79.119094
     -3.268268     37.699702     37.699702     75.399404
     -3.258258     33.612171     33.612171     67.224342
     -3.248248     27.942064     27.942064     55.884129
     -3.238238     21.602646     21.602646     43.205291
     -3.228228     15.504019     15.504019     31.008037
     -3.218218     10.320159     10.320159     20.640319
     -3.208208      6.381638      6.381638     12.763276
     -3.198198      3.708981      3.708981      7.417962
     -3.188188      2.138449      2.138449      4.276898
     -3.178178      1.470038      1.470038      2.940076
     -3.168168      1.583277      1.583277      3.166554
     -3.158158      2.494973      2.494973      4.989946
     -3.148148      4.353234      4.353234      8.706468
     -3.138138      7.370717      7.370717     14.741434
     -3.128128     11.707720     11.707720     23.415440
     -3.118118     17.332462     17.332462     34.664924
     -3.108108     23.908538     23.908538     47.817075
     -3.098098     30.770840     30.770840     61.541679
     -3.088088     37.032030     37.032030     74.064060
     -3.078078     41.808659     41.808659     83.617317
     -3.068068     44.490945     44.490945     88.981889
     -3.058058     44.941104     44.941104     89.882208
     -3.048048     43.522232     43.522232     87.044464
     -3.038038     40.933418     40.933418     81.866836
     -3.028028     37.921990     37.921990     75.843980
     -3.018018     35.008221     35.008221     70.016443
     -3.008008     32.352557     32.352557     64.705114
     -2.997998     29.820284     29.820284     59.640569
     -2.987988     27.195019     27.195019     54.390038
     -2.977978     24.418909     24.418909     48.837818
     -2.967968     21.733117     21.733117     43.466235
     -2.957958     19.652606     19.652606     39.305213
     -2.947948     18.793916     18.793916     37.587832
     -2.937938     19.637113     19.637113     39.274227
     -2.927928     22.320089     22.320089     44.640177
     -2.917918     26.540802     26.540802     53.081604
     -2.907908     31.600762     31.600762     63.201523
     -2.897898     36.577343     36.577343     73.154687
     -2.887888     40.572115     40.572115     81.144230
     -2.877878     42.954579     42.954579     85.909159
     -2.867868     43.516669     43.516669     87.033339
     -2.857858     42.481437     42.481437     84.962875
     -2.847848     40.365020     40.365020     80.730041
     -2.837838     37.752346     37.752346     75.504692
     -2.827828     35.084231     35.084231     70.168462
     -2.817818     32.545531     32.545531     65.091062
     -2.807808     30.092478     30.092478     60.184956
     -2.797798     27.587687     27.587687     55.175374
     -2.787788     24.959742     24.959742     49.919484
     -2.777778     22.298071     22.298071     44.596143
     -2.767768     19.835795     19.835795     39.671591
     -2.757758     17.839781     17.839781     35.679562
     -2.747748     16.480485     16.480485     32.960971
     -2.737738     15.763456     15.763456     31.526913
     -2.727728     15.563510     15.563510     31.127020
     -2.717718     15.735665     15.735665     31.471330
     -2.707708     16.225548     16.225548     32.451097
     -2.697698     17.100563     17.100563     34.201127
     -2.687688     18.475504     18.475504     36.951009
     -2.677678     20.380108     20.380108     40.760216
     -2.667668     22.661580     22.661580     45.323160
     -2.657658     24.998357     24.998357     49.996715
     -2.647648     27.029589     27.029589     54.059179
     -2.637638     28.525259     28.525259     57.050518
     -2.627628     29.490632     29.490632     58.981265
     -2.617618     30.139943     30.139943     60.279885
     -2.607608     30.759636     30.759636     61.519271
     -2.597598     31.549496     31.549496     63.098991
     -2.587588     32.532577     32.532577     65.065154
     -2.577578     33.565782     33.565782     67.131564
     -2.567568     34.413516     34.413516     68.827032
     -2.557558     34.821759     34.821759     69.643519
     -2.547548     34.560988     34.560988     69.121977
     -2.537538     33.455420     33.455420     66.910840
     -2.527528     31.433026     31.433026     62.866051
     -2.517518     28.600146     28.600146     57.200292
     -2.507508     25.297795     25.297795     50.595589
     -2.497497     22.080518     22.080518     44.161035
     -2.487487     19.592253     19.592253     39.184506
     -2.477477     18.374348     18.374348     36.748695
     -2.467467     18.686454     18.686454     37.372908
     -2.457457     20.422804     20.422804     40.845608
     -2.447447     23.165033     23.165033     46.330067
     -2.437437     26.350952     26.350952     52.701904
     -2.427427     29.485601     29.485601     58.971202
     -2.417417     32.300141     32.300141     64.600282
     -2.407407     34.786364     34.786364     69.572727
     -2.397397     37.092361     37.092361     74.184723
     -2.387387     39.332783     39.332783     78.665566
     -2.377377     41.412359     41.412359     82.824717
     -2.367367     42.960064     42.960064     85.920127
     -2.357357     43.421126     43.421126     86.842252
     -2.347347     42.276833     42.276833     84.553666
     -2.337337     39.295115     39.295115     78.590230
     -2.327327     34.694066     34.694066     69.388132
     -2.317317     29.139850     29.139850     58.279701
     -2.307307     23.579637     23.579637     47.159275
     -2.297297     18.984579     18.984579     37.969159
     -2.287287     16.107011     16.107011     32.214023
     -2.277277     15.331241     15.331241     30.662482
     -2.267267     16.643448     16.643448     33.286895
     -2.257257     19.698529     19.698529     39.397058
     -2.247247     23.939684     23.939684     47.879367
     -2.237237     28.727335     28.727335     57.454670
     -2.227227     33.445224     33.445224     66.890448
     -2.217217     37.565766     37.565766     75.131532
     -2.207207     40.673682     40.673682     81.347364
     -2.197197     42.465160     42.465160     84.930320
     -2.187187     42.750836     42.750836     85.501672
     -2.177177     41.483377     41.483377     82.966753
     -2.167167     38.802915     38.802915     77.605830
     -2.157157     35.062356     35.062356     70.124712
     -2.147147     30.786319     30.786319     61.572637
     -2.137137     26.547614     26.547614     53.095228
     -2.127127     22.799657     22.799657     45.599314
     -2.117117     19.743591     19.743591     39.487181
     -2.107107     17.301161     17.301161     34.602322
     -2.097097     15.208286     15.208286     30.416571
     -2.087087     13.176408     13.176408     26.352815
     -2.077077     11.034998     11.034998     22.069996
     -2.067067      8.788993      8.788993     17.577985
     -2.057057      6.580782      6.580782     13.161564
     -2.047047      4.597810      4.597810      9.195621
     -2.037037      2.984002      2.984002      5.968005
     -2.027027      1.794528      1.794528      3.589056
     -2.017017      0.999795      0.999795      1.999589
     -2.007007      0.519741      0.519741      1.039482
     -1.996997      0.263821      0.263821      0.527641
     -1.986987      0.160919      0.160919      0.321838
     -1.976977      0.175734      0.175734      0.351467
     -1.966967      0.315497      0.315497      0.630995
     -1.956957      0.631135      0.631135      1.262269
     -1.946947      1.212625      1.212625      2.425249
     -1.936937      2.174029      2.174029      4.348059
     -1.926927      3.623545      3.623545      7.247089
     -1.916917      5.620035      5.620035     11.240070
     -1.906907      8.127653      8.127653     16.255306
     -1.896897     10.988031     10.988031     21.976062
     -1.886887     13.928129     13.928129     27.856259
     -1.876877     16.609384     16.609384     33.218768
     -1.866867     18.706506     18.706506     37.413013
     -1.856857     19.992100     19.992100     39.984201
     -1.846847     20.401574     20.401574     40.803148
     -1.836837     20.058989     20.058989     40.117978
     -1.826827     19.253196     19.253196     38.506391
     -1.816817     18.363998     18.363998     36.727995
     -1.806807     17.753089     17.753089     35.506178
     -1.796797     17.651937     17.651937     35.303874
     -1.786787     18.087648     18.087648     36.175295
     -1.776777     18.876908     18.876908     37.753815
     -1.766767     19.689458     19.689458     39.378915
     -1.756757     20.153376     20.153376     40.306752
     -1.746747     19.962674     19.962674     39.925347
     -1.736737     18.956466     18.956466     37.912932
     -1.726727     17.156325     17.156325     34.312651
     -1.716717     14.761243     14.761243     29.522486
     -1.706707     12.105412     12.105412     24.210823
     -1.696697      9.588126      9.588126     19.176253
     -1.686687      7.590402      7.590402     15.180805
     -1.676677      6.395930      6.395930     12.791860
     -1.666667      6.131315      6.131315     12.262631
     -1.656657      6.734968      6.734968     13.469936
     -1.646647      7.961253      7.961253     15.922506
     -1.636637      9.426572      9.426572     18.853144
     -1.626627     10.699345     10.699345     21.398689
