# EIG2DOS: Utility for SIESTA to obtain the electronic density of states
#  E. Artacho, Apr 1999, A. Garcia, Apr 2012
#  Nick R. Papior, Feb 2017
# ------------------------------------------
# Eigenvalues calculated from a non-polarized calculation
# Eigenvalues read from siesta.EIG
# Kpoint weights read from siesta.KP
# Using smearing parameter:   0.0500
# Using 1000 points in the energy range
# Selected bands: 1 to: 2981
# Emin, Emax in file for selected band(s):    -27.0641008    218.3391290
# Nbands, Nspin, Nk   =   2981     1     1
# E_F                 =    -4.2714 eV --> (shifted to ZERO)
# Broadening          =     0.0500 eV
#
#        E            N(up)  (=)   N(down)         Ntot
     -5.000000     37.038846     37.038846     74.077693
     -4.989990     39.562739     39.562739     79.125478
     -4.979980     41.787822     41.787822     83.575644
     -4.969970     43.233332     43.233332     86.466663
     -4.959960     43.532520     43.532520     87.065040
     -4.949950     42.544121     42.544121     85.088242
     -4.939940     40.395849     40.395849     80.791698
     -4.929930     37.464756     37.464756     74.929511
     -4.919920     34.319951     34.319951     68.639903
     -4.909910     31.649933     31.649933     63.299865
     -4.899900     30.174633     30.174633     60.349265
     -4.889890     30.522228     30.522228     61.044456
     -4.879880     33.058223     33.058223     66.116446
     -4.869870     37.697748     37.697748     75.395496
     -4.859860     43.786389     43.786389     87.572778
     -4.849850     50.151671     50.151671    100.303342
     -4.839840     55.371783     55.371783    110.743567
     -4.829830     58.195894     58.195894    116.391788
     -4.819820     57.948708     57.948708    115.897416
     -4.809810     54.735293     54.735293    109.470587
     -4.799800     49.353635     49.353635     98.707269
     -4.789790     42.969457     42.969457     85.938914
     -4.779780     36.717888     36.717888     73.435776
     -4.769770     31.404994     31.404994     62.809988
     -4.759760     27.398242     27.398242     54.796485
     -4.749750     24.686028     24.686028     49.372055
     -4.739740     23.021039     23.021039     46.042078
     -4.729730     22.062157     22.062157     44.124314
     -4.719720     21.469404     21.469404     42.938808
     -4.709710     20.948460     20.948460     41.896920
     -4.699700     20.265290     20.265290     40.530579
     -4.689690     19.257021     19.257021     38.514042
     -4.679680     17.857620     17.857620     35.715240
     -4.669670     16.139913     16.139913     32.279826
     -4.659660     14.355601     14.355601     28.711201
     -4.649650     12.942988     12.942988     25.885977
     -4.639640     12.476292     12.476292     24.952585
     -4.629630     13.548593     13.548593     27.097186
     -4.619620     16.604200     16.604200     33.208400
     -4.609610     21.758964     21.758964     43.517927
     -4.599600     28.666040     28.666040     57.332079
     -4.589590     36.492665     36.492665     72.985331
     -4.579580     44.056033     44.056033     88.112066
     -4.569570     50.113918     50.113918    100.227836
     -4.559560     53.731946     53.731946    107.463893
     -4.549550     54.593019     54.593019    109.186039
     -4.539540     53.116105     53.116105    106.232211
     -4.529530     50.321924     50.321924    100.643848
     -4.519520     47.490186     47.490186     94.980372
     -4.509510     45.741071     45.741071     91.482142
     -4.499499     45.697961     45.697961     91.395922
     -4.489489     47.341795     47.341795     94.683591
     -4.479479     50.080461     50.080461    100.160922
     -4.469469     52.976016     52.976016    105.952033
     -4.459459     55.032700     55.032700    110.065400
     -4.449449     55.455332     55.455332    110.910664
     -4.439439     53.822221     53.822221    107.644441
     -4.429429     50.154085     50.154085    100.308170
     -4.419419     44.886115     44.886115     89.772231
     -4.409409     38.762908     38.762908     77.525817
     -4.399399     32.681137     32.681137     65.362274
     -4.389389     27.507779     27.507779     55.015557
     -4.379379     23.905366     23.905366     47.810731
     -4.369369     22.199809     22.199809     44.399617
     -4.359359     22.326035     22.326035     44.652071
     -4.349349     23.874234     23.874234     47.748468
     -4.339339     26.231204     26.231204     52.462408
     -4.329329     28.775382     28.775382     57.550763
     -4.319319     31.059182     31.059182     62.118365
     -4.309309     32.915141     32.915141     65.830282
     -4.299299     34.453416     34.453416     68.906831
     -4.289289     35.960239     35.960239     71.920478
     -4.279279     37.738234     37.738234     75.476467
     -4.269269     39.941267     39.941267     79.882533
     -4.259259     42.455147     42.455147     84.910295
     -4.249249     44.868996     44.868996     89.737993
     -4.239239     46.566187     46.566187     93.132374
     -4.229229     46.926572     46.926572     93.853144
     -4.219219     45.575767     45.575767     91.151535
     -4.209209     42.572649     42.572649     85.145298
     -4.199199     38.433663     38.433663     76.867326
     -4.189189     33.965206     33.965206     67.930413
     -4.179179     29.976812     29.976812     59.953623
     -4.169169     27.013281     27.013281     54.026562
     -4.159159     25.229717     25.229717     50.459434
     -4.149149     24.451015     24.451015     48.902030
     -4.139139     24.361214     24.361214     48.722427
     -4.129129     24.712130     24.712130     49.424260
     -4.119119     25.445062     25.445062     50.890124
     -4.109109     26.670152     26.670152     53.340304
     -4.099099     28.518373     28.518373     57.036747
     -4.089089     30.945339     30.945339     61.890679
     -4.079079     33.599709     33.599709     67.199418
     -4.069069     35.849744     35.849744     71.699487
     -4.059059     36.985641     36.985641     73.971282
     -4.049049     36.514643     36.514643     73.029285
     -4.039039     34.400739     34.400739     68.801479
     -4.029029     31.119727     31.119727     62.239455
     -4.019019     27.499142     27.499142     54.998283
     -4.009009     24.429900     24.429900     48.859799
     -3.998999     22.596802     22.596802     45.193604
     -3.988989     22.343774     22.343774     44.687548
     -3.978979     23.696385     23.696385     47.392770
     -3.968969     26.476528     26.476528     52.953056
     -3.958959     30.416934     30.416934     60.833868
     -3.948949     35.221594     35.221594     70.443188
     -3.938939     40.580481     40.580481     81.160962
     -3.928929     46.181251     46.181251     92.362502
     -3.918919     51.745105     51.745105    103.490209
     -3.908909     57.070161     57.070161    114.140322
     -3.898899     62.036911     62.036911    124.073822
     -3.888889     66.544811     66.544811    133.089622
     -3.878879     70.398889     70.398889    140.797778
     -3.868869     73.214393     73.214393    146.428785
     -3.858859     74.418783     74.418783    148.837566
     -3.848849     73.390142     73.390142    146.780285
     -3.838839     69.697526     69.697526    139.395053
     -3.828829     63.342560     63.342560    126.685119
     -3.818819     54.883270     54.883270    109.766541
     -3.808809     45.366289     45.366289     90.732577
     -3.798799     36.079980     36.079980     72.159960
     -3.788789     28.221083     28.221083     56.442166
     -3.778779     22.598480     22.598480     45.196960
     -3.768769     19.470004     19.470004     38.940008
     -3.758759     18.546324     18.546324     37.092648
     -3.748749     19.136691     19.136691     38.273382
     -3.738739     20.377876     20.377876     40.755752
     -3.728729     21.480897     21.480897     42.961793
     -3.718719     21.938402     21.938402     43.876805
     -3.708709     21.648481     21.648481     43.296961
     -3.698699     20.925856     20.925856     41.851711
     -3.688689     20.392086     20.392086     40.784171
     -3.678679     20.764957     20.764957     41.529915
     -3.668669     22.600645     22.600645     45.201290
     -3.658659     26.069060     26.069060     52.138119
     -3.648649     30.846383     30.846383     61.692767
     -3.638639     36.176074     36.176074     72.352148
     -3.628629     41.084938     41.084938     82.169877
     -3.618619     44.672152     44.672152     89.344304
     -3.608609     46.356003     46.356003     92.712006
     -3.598599     45.988965     45.988965     91.977931
     -3.588589     43.821483     43.821483     87.642966
     -3.578579     40.362924     40.362924     80.725848
     -3.568569     36.213983     36.213983     72.427967
     -3.558559     31.924754     31.924754     63.849507
     -3.548549     27.897748     27.897748     55.795495
     -3.538539     24.337287     24.337287     48.674575
     -3.528529     21.249303     21.249303     42.498607
     -3.518519     18.497256     18.497256     36.994513
     -3.508509     15.903523     15.903523     31.807047
     -3.498498     13.359482     13.359482     26.718965
     -3.488488     10.896297     10.896297     21.792594
     -3.478478      8.686092      8.686092     17.372184
     -3.468468      6.978491      6.978491     13.956983
     -3.458458      6.005360      6.005360     12.010721
     -3.448448      5.891985      5.891985     11.783971
     -3.438438      6.601350      6.601350     13.202700
     -3.428428      7.924855      7.924855     15.849709
     -3.418418      9.525022      9.525022     19.050043
     -3.408408     11.027358     11.027358     22.054717
     -3.398398     12.141798     12.141798     24.283596
     -3.388388     12.773425     12.773425     25.546849
     -3.378378     13.074314     13.074314     26.148627
     -3.368368     13.406820     13.406820     26.813640
     -3.358358     14.227895     14.227895     28.455790
     -3.348348     15.939731     15.939731     31.879462
     -3.338338     18.760428     18.760428     37.520856
     -3.328328     22.646944     22.646944     45.293887
     -3.318318     27.273114     27.273114     54.546228
     -3.308308     32.054183     32.054183     64.108366
     -3.298298     36.220720     36.220720     72.441440
     -3.288288     38.955816     38.955816     77.911633
     -3.278278     39.591865     39.591865     79.183730
     -3.268268     37.817077     37.817077     75.634154
     -3.258258     33.803749     33.803749     67.607498
     -3.248248     28.182893     28.182893     56.365787
     -3.238238     21.859087     21.859087     43.718174
     -3.228228     15.742420     15.742420     31.484839
     -3.218218     10.513820     10.513820     21.027639
     -3.208208      6.511549      6.511549     13.023099
     -3.198198      3.756073      3.756073      7.512146
     -3.188188      2.067401      2.067401      4.134803
     -3.178178      1.206620      1.206620      2.413239
     -3.168168      0.989987      0.989987      1.979974
     -3.158158      1.355016      1.355016      2.710033
     -3.148148      2.379536      2.379536      4.759073
     -3.138138      4.259199      4.259199      8.518399
     -3.128128      7.244190      7.244190     14.488379
     -3.118118     11.535746     11.535746     23.071492
     -3.108108     17.156439     17.156439     34.312879
     -3.098098     23.832069     23.832069     47.664138
     -3.088088     30.942299     30.942299     61.884598
     -3.078078     37.591523     37.591523     75.183046
     -3.068068     42.809951     42.809951     85.619902
     -3.058058     45.829706     45.829706     91.659413
     -3.048048     46.327414     46.327414     92.654828
     -3.038038     44.522680     44.522680     89.045359
     -3.028028     41.083253     41.083253     82.166506
     -3.018018     36.881695     36.881695     73.763391
     -3.008008     32.718270     32.718270     65.436539
     -2.997998     29.129050     29.129050     58.258100
     -2.987988     26.340980     26.340980     52.681961
     -2.977978     24.358657     24.358657     48.717313
     -2.967968     23.114539     23.114539     46.229079
     -2.957958     22.601811     22.601811     45.203621
     -2.947948     22.928593     22.928593     45.857187
     -2.937938     24.269380     24.269380     48.538759
     -2.927928     26.734704     26.734704     53.469408
     -2.917918     30.222117     30.222117     60.444233
     -2.907908     34.331144     34.331144     68.662288
     -2.897898     38.404399     38.404399     76.808799
     -2.887888     41.698159     41.698159     83.396318
     -2.877878     43.616877     43.616877     87.233755
     -2.867868     43.906680     43.906680     87.813359
     -2.857858     42.717605     42.717605     85.435210
     -2.847848     40.506842     40.506842     81.013683
     -2.837838     37.831996     37.831996     75.663992
     -2.827828     35.134136     35.134136     70.268271
     -2.817818     32.609621     32.609621     65.219242
     -2.807808     30.219785     30.219785     60.439571
     -2.797798     27.815560     27.815560     55.631121
     -2.787788     25.297821     25.297821     50.595641
     -2.777778     22.722342     22.722342     45.444683
     -2.767768     20.295785     20.295785     40.591569
     -2.757758     18.274613     18.274613     36.549226
     -2.747748     16.835189     16.835189     33.670378
     -2.737738     15.997949     15.997949     31.995899
     -2.727728     15.652221     15.652221     31.304442
     -2.717718     15.662200     15.662200     31.324401
     -2.707708     15.979991     15.979991     31.959982
     -2.697698     16.684700     16.684700     33.369401
     -2.687688     17.914615     17.914615     35.829229
     -2.677678     19.733089     19.733089     39.466178
     -2.667668     22.019118     22.019118     44.038236
     -2.657658     24.464071     24.464071     48.928143
     -2.647648     26.689352     26.689352     53.378704
     -2.637638     28.418604     28.418604     56.837207
     -2.627628     29.598756     29.598756     59.197512
     -2.617618     30.396089     30.396089     60.792177
     -2.607608     31.075370     31.075370     62.150740
     -2.597598     31.843228     31.843228     63.686455
     -2.587588     32.748970     32.748970     65.497941
     -2.577578     33.683071     33.683071     67.366143
     -2.567568     34.442522     34.442522     68.885044
     -2.557558     34.800845     34.800845     69.601690
     -2.547548     34.547307     34.547307     69.094615
     -2.537538     33.510554     33.510554     67.021107
     -2.527528     31.603850     31.603850     63.207699
     -2.517518     28.901068     28.901068     57.802136
     -2.507508     25.702725     25.702725     51.405450
     -2.497497     22.529117     22.529117     45.058234
     -2.487487     20.007599     20.007599     40.015198
     -2.477477     18.683602     18.683602     37.367205
     -2.467467     18.836046     18.836046     37.672091
     -2.457457     20.384177     20.384177     40.768353
     -2.447447     22.932445     22.932445     45.864890
     -2.437437     25.935850     25.935850     51.871699
     -2.427427     28.911975     28.911975     57.823951
     -2.417417     31.603177     31.603177     63.206354
     -2.407407     34.014213     34.014213     68.028426
     -2.397397     36.308831     36.308831     72.617661
     -2.387387     38.617546     38.617546     77.235091
     -2.377377     40.855214     40.855214     81.710428
     -2.367367     42.647311     42.647311     85.294621
     -2.357357     43.415483     43.415483     86.830966
     -2.347347     42.596628     42.596628     85.193257
     -2.337337     39.901365     39.901365     79.802729
     -2.327327     35.492960     35.492960     70.985920
     -2.317317     30.002422     30.002422     60.004845
     -2.307307     24.372661     24.372661     48.745322
     -2.297297     19.601489     19.601489     39.202978
     -2.287287     16.487956     16.487956     32.975911
     -2.277277     15.466736     15.466736     30.933471
     -2.267267     16.563155     16.563155     33.126309
     -2.257257     19.452121     19.452121     38.904241
     -2.247247     23.578761     23.578761     47.157523
     -2.237237     28.295717     28.295717     56.591434
     -2.227227     32.980222     32.980222     65.960444
     -2.217217     37.106938     37.106938     74.213877
     -2.207207     40.270923     40.270923     80.541847
     -2.197197     42.177933     42.177933     84.355866
     -2.187187     42.635562     42.635562     85.271123
     -2.177177     41.573798     41.573798     83.147596
     -2.167167     39.093737     39.093737     78.187475
     -2.157157     35.506035     35.506035     71.012069
     -2.147147     31.306470     31.306470     62.612940
     -2.137137     27.063851     27.063851     54.127702
     -2.127127     23.252622     23.252622     46.505244
     -2.117117     20.109091     20.109091     40.218182
     -2.107107     17.588335     17.588335     35.176671
     -2.097097     15.445027     15.445027     30.890054
     -2.087087     13.391011     13.391011     26.782022
     -2.077077     11.243189     11.243189     22.486378
     -2.067067      8.990849      8.990849     17.981699
     -2.057057      6.766046      6.766046     13.532093
     -2.047047      4.754403      4.754403      9.508806
     -2.037037      3.104639      3.104639      6.209279
     -2.027027      1.879034      1.879034      3.758068
     -2.017017      1.053682      1.053682      2.107363
     -2.007007      0.551150      0.551150      1.102300
     -1.996997      0.280790      0.280790      0.561580
     -1.986987      0.169914      0.169914      0.339827
     -1.976977      0.181392      0.181392      0.362784
     -1.966967      0.321050      0.321050      0.642100
     -1.956957      0.638881      0.638881      1.277761
     -1.946947      1.224009      1.224009      2.448018
     -1.936937      2.189114      2.189114      4.378227
     -1.926927      3.639999      3.639999      7.279997
     -1.916917      5.632210      5.632210     11.264420
     -1.906907      8.126659      8.126659     16.253318
     -1.896897     10.963685     10.963685     21.927369
     -1.886887     13.872860     13.872860     27.745720
     -1.876877     16.522770     16.522770     33.045541
     -1.866867     18.597694     18.597694     37.195388
     -1.856857     19.876825     19.876825     39.753649
     -1.846847     20.291368     20.291368     40.582736
     -1.836837     19.942114     19.942114     39.884228
     -1.826827     19.069259     19.069259     38.138519
     -1.816817     17.977048     17.977048     35.954096
     -1.806807     16.931835     16.931835     33.863669
     -1.796797     16.070793     16.070793     32.141586
     -1.786787     15.365729     15.365729     30.731459
     -1.776777     14.667985     14.667985     29.335971
     -1.766767     13.818650     13.818650     27.637300
     -1.756757     12.767490     12.767490     25.534981
     -1.746747     11.633414     11.633414     23.266829
     -1.736737     10.669404     10.669404     21.338808
     -1.726727     10.148221     10.148221     20.296442
     -1.716717     10.229386     10.229386     20.458771
     -1.706707     10.877925     10.877925     21.755850
     -1.696697     11.877210     11.877210     23.754419
     -1.686687     12.927850     12.927850     25.855700
     -1.676677     13.778444     13.778444     27.556888
     -1.666667     14.316814     14.316814     28.633628
     -1.656657     14.573721     14.573721     29.147443
     -1.646647     14.644053     14.644053     29.288106
     -1.636637     14.581863     14.581863     29.163725
     -1.626627     14.341747     14.341747     28.683495
