# EIG2DOS: Utility for SIESTA to obtain the electronic density of states
#  E. Artacho, Apr 1999, A. Garcia, Apr 2012
#  Nick R. Papior, Feb 2017
# ------------------------------------------
# Eigenvalues calculated from a non-polarized calculation
# Eigenvalues read from siesta.EIG
# Kpoint weights read from siesta.KP
# Using smearing parameter:   0.0500
# Using 1000 points in the energy range
# Selected bands: 1 to: 2981
# Emin, Emax in file for selected band(s):    -27.4123901    218.4113700
# Nbands, Nspin, Nk   =   2981     1     1
# E_F                 =    -4.1848 eV --> (shifted to ZERO)
# Broadening          =     0.0500 eV
#
#        E            N(up)  (=)   N(down)         Ntot
     -5.000000     34.844123     34.844123     69.688245
     -4.989990     39.923240     39.923240     79.846479
     -4.979980     44.176923     44.176923     88.353845
     -4.969970     46.814102     46.814102     93.628205
     -4.959960     47.343149     47.343149     94.686297
     -4.949950     45.738154     45.738154     91.476307
     -4.939940     42.449379     42.449379     84.898757
     -4.929930     38.279874     38.279874     76.559748
     -4.919920     34.201900     34.201900     68.403800
     -4.909910     31.180754     31.180754     62.361509
     -4.899900     30.028420     30.028420     60.056840
     -4.889890     31.272028     31.272028     62.544057
     -4.879880     35.026852     35.026852     70.053703
     -4.869870     40.902891     40.902891     81.805783
     -4.859860     48.006659     48.006659     96.013319
     -4.849850     55.087116     55.087116    110.174231
     -4.839840     60.815286     60.815286    121.630573
     -4.829830     64.116978     64.116978    128.233957
     -4.819820     64.442121     64.442121    128.884243
     -4.809810     61.874394     61.874394    123.748788
     -4.799800     57.048830     57.048830    114.097659
     -4.789790     50.919860     50.919860    101.839719
     -4.779780     44.473814     44.473814     88.947627
     -4.769770     38.488805     38.488805     76.977611
     -4.759760     33.411934     33.411934     66.823868
     -4.749750     29.367253     29.367253     58.734506
     -4.739740     26.254951     26.254951     52.509902
     -4.729730     23.875337     23.875337     47.750673
     -4.719720     22.019366     22.019366     44.038731
     -4.709710     20.502651     20.502651     41.005303
     -4.699700     19.161465     19.161465     38.322930
     -4.689690     17.852903     17.852903     35.705805
     -4.679680     16.492647     16.492647     32.985293
     -4.669670     15.128302     15.128302     30.256605
     -4.659660     14.008175     14.008175     28.016350
     -4.649650     13.590317     13.590317     27.180635
     -4.639640     14.454492     14.454492     28.908985
     -4.629630     17.120534     17.120534     34.241069
     -4.619620     21.822232     21.822232     43.644463
     -4.609610     28.319881     28.319881     56.639761
     -4.599600     35.843035     35.843035     71.686071
     -4.589590     43.224385     43.224385     86.448769
     -4.579580     49.213729     49.213729     98.427458
     -4.569570     52.871745     52.871745    105.743491
     -4.559560     53.885394     53.885394    107.770788
     -4.549550     52.663863     52.663863    105.327725
     -4.539540     50.167078     50.167078    100.334155
     -4.529530     47.539430     47.539430     95.078861
     -4.519520     45.703506     45.703506     91.407012
     -4.509510     45.073289     45.073289     90.146577
     -4.499499     45.481392     45.481392     90.962784
     -4.489489     46.320313     46.320313     92.640627
     -4.479479     46.817336     46.817336     93.634671
     -4.469469     46.324729     46.324729     92.649458
     -4.459459     44.518883     44.518883     89.037766
     -4.449449     41.453514     41.453514     82.907029
     -4.439439     37.479212     37.479212     74.958424
     -4.429429     33.094290     33.094290     66.188581
     -4.419419     28.806157     28.806157     57.612314
     -4.409409     25.053428     25.053428     50.106856
     -4.399399     22.187235     22.187235     44.374470
     -4.389389     20.471082     20.471082     40.942165
     -4.379379     20.058828     20.058828     40.117657
     -4.369369     20.946773     20.946773     41.893545
     -4.359359     22.936845     22.936845     45.873691
     -4.349349     25.658267     25.658267     51.316535
     -4.339339     28.664402     28.664402     57.328803
     -4.329329     31.572021     31.572021     63.144043
     -4.319319     34.177982     34.177982     68.355963
     -4.309309     36.495003     36.495003     72.990006
     -4.299299     38.687475     38.687475     77.374951
     -4.289289     40.934547     40.934547     81.869093
     -4.279279     43.278255     43.278255     86.556510
     -4.269269     45.521053     45.521053     91.042106
     -4.259259     47.222759     47.222759     94.445518
     -4.249249     47.815591     47.815591     95.631181
     -4.239239     46.810658     46.810658     93.621315
     -4.229229     44.021879     44.021879     88.043759
     -4.219219     39.708148     39.708148     79.416296
     -4.209209     34.555633     34.555633     69.111266
     -4.199199     29.489656     29.489656     58.979313
     -4.189189     25.387443     25.387443     50.774886
     -4.179179     22.812954     22.812954     45.625908
     -4.169169     21.884293     21.884293     43.768586
     -4.159159     22.320343     22.320343     44.640686
     -4.149149     23.631469     23.631469     47.262937
     -4.139139     25.358076     25.358076     50.716153
     -4.129129     27.244388     27.244388     54.488776
     -4.119119     29.267378     29.267378     58.534755
     -4.109109     31.510892     31.510892     63.021784
     -4.099099     33.956350     33.956350     67.912701
     -4.089089     36.315785     36.315785     72.631571
     -4.079079     38.023764     38.023764     76.047527
     -4.069069     38.423470     38.423470     76.846940
     -4.059059     37.067348     37.067348     74.134696
     -4.049049     33.974870     33.974870     67.949741
     -4.039039     29.704446     29.704446     59.408893
     -4.029029     25.197849     25.197849     50.395697
     -4.019019     21.478170     21.478170     42.956341
     -4.009009     19.348708     19.348708     38.697416
     -3.998999     19.217144     19.217144     38.434288
     -3.988989     21.085290     21.085290     42.170579
     -3.978979     24.659888     24.659888     49.319776
     -3.968969     29.501895     29.501895     59.003790
     -3.958959     35.148249     35.148249     70.296499
     -3.948949     41.184320     41.184320     82.368640
     -3.938939     47.279492     47.279492     94.558984
     -3.928929     53.201822     53.201822    106.403645
     -3.918919     58.809145     58.809145    117.618291
     -3.908909     64.001638     64.001638    128.003277
     -3.898899     68.635583     68.635583    137.271166
     -3.888889     72.432827     72.432827    144.865653
     -3.878879     74.944722     74.944722    149.889443
     -3.868869     75.616464     75.616464    151.232929
     -3.858859     73.949138     73.949138    147.898277
     -3.848849     69.701653     69.701653    139.403306
     -3.838839     63.047220     63.047220    126.094440
     -3.828829     54.614020     54.614020    109.228040
     -3.818819     45.386399     45.386399     90.772798
     -3.808809     36.495938     36.495938     72.991876
     -3.798799     28.968155     28.968155     57.936310
     -3.788789     23.499944     23.499944     46.999889
     -3.778779     20.327577     20.327577     40.655153
     -3.768769     19.214928     19.214928     38.429856
     -3.758759     19.557862     19.557862     39.115724
     -3.748749     20.572300     20.572300     41.144599
     -3.738739     21.515872     21.515872     43.031744
     -3.728729     21.887919     21.887919     43.775838
     -3.718719     21.558893     21.558893     43.117785
     -3.708709     20.795642     20.795642     41.591284
     -3.698699     20.171474     20.171474     40.342949
     -3.688689     20.377809     20.377809     40.755618
     -3.678679     21.984337     21.984337     43.968673
     -3.668669     25.218808     25.218808     50.437615
     -3.658659     29.843252     29.843252     59.686503
     -3.648649     35.179631     35.179631     70.359261
     -3.638639     40.285734     40.285734     80.571467
     -3.628629     44.220975     44.220975     88.441950
     -3.618619     46.303093     46.303093     92.606187
     -3.608609     46.264462     46.264462     92.528924
     -3.598599     44.267669     44.267669     88.535338
     -3.588589     40.802977     40.802977     81.605953
     -3.578579     36.528240     36.528240     73.056479
     -3.568569     32.110195     32.110195     64.220390
     -3.558559     28.100500     28.100500     56.200999
     -3.548549     24.857461     24.857461     49.714922
     -3.538539     22.516975     22.516975     45.033950
     -3.528529     21.014187     21.014187     42.028374
     -3.518519     20.147511     20.147511     40.295023
     -3.508509     19.661050     19.661050     39.322100
     -3.498498     19.315809     19.315809     38.631618
     -3.488488     18.933086     18.933086     37.866172
     -3.478478     18.413710     18.413710     36.827421
     -3.468468     17.744303     17.744303     35.488607
     -3.458458     16.990988     16.990988     33.981976
     -3.448448     16.269087     16.269087     32.538174
     -3.438438     15.685058     15.685058     31.370116
     -3.428428     15.273439     15.273439     30.546877
     -3.418418     14.971632     14.971632     29.943265
     -3.408408     14.663465     14.663465     29.326930
     -3.398398     14.279953     14.279953     28.559906
     -3.388388     13.902914     13.902914     27.805828
     -3.378378     13.807571     13.807571     27.615142
     -3.368368     14.412080     14.412080     28.824159
     -3.358358     16.151324     16.151324     32.302647
     -3.348348     19.325368     19.325368     38.650736
     -3.338338     23.973097     23.973097     47.946195
     -3.328328     29.800409     29.800409     59.600818
     -3.318318     36.174260     36.174260     72.348520
     -3.308308     42.190915     42.190915     84.381830
     -3.298298     46.826863     46.826863     93.653725
     -3.288288     49.162507     49.162507     98.325015
     -3.278278     48.628032     48.628032     97.256064
     -3.268268     45.183893     45.183893     90.367787
     -3.258258     39.352053     39.352053     78.704106
     -3.248248     32.070728     32.070728     64.141455
     -3.238238     24.426340     24.426340     48.852679
     -3.228228     17.371190     17.371190     34.742380
     -3.218218     11.531543     11.531543     23.063085
     -3.208208      7.156458      7.156458     14.312916
     -3.198198      4.190932      4.190932      8.381865
     -3.188188      2.414878      2.414878      4.829757
     -3.178178      1.585094      1.585094      3.170188
     -3.168168      1.538360      1.538360      3.076720
     -3.158158      2.238911      2.238911      4.477823
     -3.148148      3.769062      3.769062      7.538125
     -3.138138      6.268115      6.268115     12.536229
     -3.128128      9.831130      9.831130     19.662259
     -3.118118     14.392965     14.392965     28.785930
     -3.108108     19.640567     19.640567     39.281135
     -3.098098     25.003162     25.003162     50.006324
     -3.088088     29.750227     29.750227     59.500453
     -3.078078     33.179963     33.179963     66.359925
     -3.068068     34.828034     34.828034     69.656068
     -3.058058     34.602373     34.602373     69.204746
     -3.048048     32.778395     32.778395     65.556790
     -3.038038     29.860192     29.860192     59.720385
     -3.028028     26.384936     26.384936     52.769872
     -3.018018     22.773058     22.773058     45.546116
     -3.008008     19.289609     19.289609     38.579218
     -2.997998     16.109837     16.109837     32.219673
     -2.987988     13.423899     13.423899     26.847798
     -2.977978     11.505368     11.505368     23.010736
     -2.967968     10.701818     10.701818     21.403635
     -2.957958     11.352508     11.352508     22.705017
     -2.947948     13.669202     13.669202     27.338404
     -2.937938     17.624168     17.624168     35.248335
     -2.927928     22.884051     22.884051     45.768103
     -2.917918     28.818801     28.818801     57.637602
     -2.907908     34.600241     34.600241     69.200482
     -2.897898     39.379627     39.379627     78.759253
     -2.887888     42.499646     42.499646     84.999291
     -2.877878     43.668989     43.668989     87.337978
     -2.867868     43.026977     43.026977     86.053954
     -2.857858     41.062180     41.062180     82.124360
     -2.847848     38.411661     38.411661     76.823323
     -2.837838     35.625792     35.625792     71.251583
     -2.827828     33.003309     33.003309     66.006617
     -2.817818     30.566598     30.566598     61.133195
     -2.807808     28.173984     28.173984     56.347969
     -2.797798     25.694798     25.694798     51.389597
     -2.787788     23.145175     23.145175     46.290351
     -2.777778     20.713443     20.713443     41.426886
     -2.767768     18.673712     18.673712     37.347424
     -2.757758     17.252235     17.252235     34.504470
     -2.747748     16.533647     16.533647     33.067294
     -2.737738     16.460744     16.460744     32.921488
     -2.727728     16.914649     16.914649     33.829297
     -2.717718     17.806793     17.806793     35.613587
     -2.707708     19.108922     19.108922     38.217845
     -2.697698     20.797722     20.797722     41.595444
     -2.687688     22.761593     22.761593     45.523186
     -2.677678     24.755093     24.755093     49.510185
     -2.667668     26.458945     26.458945     52.917890
     -2.657658     27.626163     27.626163     55.252326
     -2.647648     28.223974     28.223974     56.447947
     -2.637638     28.472328     28.472328     56.944655
     -2.627628     28.743058     28.743058     57.486116
     -2.617618     29.374260     29.374260     58.748519
     -2.607608     30.506270     30.506270     61.012539
     -2.597598     32.023529     32.023529     64.047058
     -2.587588     33.612718     33.612718     67.225437
     -2.577578     34.880784     34.880784     69.761568
     -2.567568     35.463052     35.463052     70.926104
     -2.557558     35.089578     35.089578     70.179157
     -2.547548     33.624464     33.624464     67.248928
     -2.537538     31.105646     31.105646     62.211292
     -2.527528     27.786060     27.786060     55.572119
     -2.517518     24.142661     24.142661     48.285322
     -2.507508     20.813997     20.813997     41.627995
     -2.497497     18.458726     18.458726     36.917452
     -2.487487     17.574175     17.574175     35.148350
     -2.477477     18.343758     18.343758     36.687516
     -2.467467     20.577704     20.577704     41.155408
     -2.457457     23.777076     23.777076     47.554153
     -2.447447     27.302878     27.302878     54.605755
     -2.437437     30.588870     30.588870     61.177740
     -2.427427     33.314860     33.314860     66.629721
     -2.417417     35.467263     35.467263     70.934526
     -2.407407     37.256553     37.256553     74.513107
     -2.397397     38.923675     38.923675     77.847350
     -2.387387     40.524487     40.524487     81.048974
     -2.377377     41.803730     41.803730     83.607460
     -2.367367     42.238110     42.238110     84.476220
     -2.357357     41.247395     41.247395     82.494791
     -2.347347     38.480510     38.480510     76.961020
     -2.337337     34.035097     34.035097     68.070194
     -2.327327     28.499250     28.499250     56.998501
     -2.317317     22.798133     22.798133     45.596266
     -2.307307     17.926388     17.926388     35.852777
     -2.297297     14.689299     14.689299     29.378599
     -2.287287     13.545142     13.545142     27.090284
     -2.277277     14.572034     14.572034     29.144068
     -2.267267     17.525120     17.525120     35.050239
     -2.257257     21.931660     21.931660     43.863320
     -2.247247     27.185957     27.185957     54.371913
     -2.237237     32.629640     32.629640     65.259280
     -2.227227     37.618544     37.618544     75.237087
     -2.217217     41.582455     41.582455     83.164910
     -2.207207     44.083613     44.083613     88.167226
     -2.197197     44.876758     44.876758     89.753515
     -2.187187     43.965439     43.965439     87.930879
     -2.177177     41.634601     41.634601     83.269203
     -2.167167     38.425756     38.425756     76.851512
     -2.157157     35.025304     35.025304     70.050609
     -2.147147     32.071166     32.071166     64.142332
     -2.137137     29.937442     29.937442     59.874884
     -2.127127     28.595453     28.595453     57.190906
     -2.117117     27.634306     27.634306     55.268612
     -2.107107     26.449893     26.449893     52.899786
     -2.097097     24.518664     24.518664     49.037328
     -2.087087     21.622851     21.622851     43.245701
     -2.077077     17.922446     17.922446     35.844892
     -2.067067     13.857120     13.857120     27.714240
     -2.057057      9.949586      9.949586     19.899171
     -2.047047      6.617367      6.617367     13.234735
     -2.037037      4.071132      4.071132      8.142265
     -2.027027      2.316006      2.316006      4.632012
     -2.017017      1.221118      1.221118      2.442235
     -2.007007      0.606306      0.606306      1.212612
     -1.996997      0.309235      0.309235      0.618471
     -1.986987      0.221201      0.221201      0.442402
     -1.976977      0.297997      0.297997      0.595994
     -1.966967      0.557051      0.557051      1.114103
     -1.956957      1.067190      1.067190      2.134380
     -1.946947      1.930186      1.930186      3.860373
     -1.936937      3.250217      3.250217      6.500433
     -1.926927      5.091485      5.091485     10.182970
     -1.916917      7.433806      7.433806     14.867612
     -1.906907     10.144191     10.144191     20.288383
     -1.896897     12.981821     12.981821     25.963642
     -1.886887     15.641531     15.641531     31.283063
     -1.876877     17.823523     17.823523     35.647046
     -1.866867     19.305571     19.305571     38.611143
     -1.856857     19.995014     19.995014     39.990028
     -1.846847     19.947111     19.947111     39.894222
     -1.836837     19.345210     19.345210     38.690421
     -1.826827     18.443910     18.443910     36.887821
     -1.816817     17.484990     17.484990     34.969979
     -1.806807     16.611106     16.611106     33.222212
     -1.796797     15.815016     15.815016     31.630032
     -1.786787     14.955633     14.955633     29.911266
     -1.776777     13.840834     13.840834     27.681668
     -1.766767     12.337593     12.337593     24.675185
     -1.756757     10.451634     10.451634     20.903268
     -1.746747      8.337077      8.337077     16.674154
     -1.736737      6.239094      6.239094     12.478189
     -1.726727      4.409200      4.409200      8.818400
     -1.716717      3.039954      3.039954      6.079908
     -1.706707      2.243629      2.243629      4.487259
     -1.696697      2.067094      2.067094      4.134187
     -1.686687      2.514638      2.514638      5.029276
     -1.676677      3.551999      3.551999      7.103997
     -1.666667      5.084360      5.084360     10.168721
     -1.656657      6.925725      6.925725     13.851450
     -1.646647      8.791688      8.791688     17.583376
     -1.636637     10.342048     10.342048     20.684097
     -1.626627     11.274153     11.274153     22.548306
