# EIG2DOS: Utility for SIESTA to obtain the electronic density of states
#  E. Artacho, Apr 1999, A. Garcia, Apr 2012
#  Nick R. Papior, Feb 2017
# ------------------------------------------
# Eigenvalues calculated from a non-polarized calculation
# Eigenvalues read from siesta.EIG
# Kpoint weights read from siesta.KP
# Using smearing parameter:   0.0500
# Using 1000 points in the energy range
# Selected bands: 1 to: 2981
# Emin, Emax in file for selected band(s):    -27.0599318    218.3207960
# Nbands, Nspin, Nk   =   2981     1     1
# E_F                 =    -4.2864 eV --> (shifted to ZERO)
# Broadening          =     0.0500 eV
#
#        E            N(up)  (=)   N(down)         Ntot
     -5.000000     44.819717     44.819717     89.639434
     -4.989990     45.910284     45.910284     91.820568
     -4.979980     46.105159     46.105159     92.210318
     -4.969970     45.454531     45.454531     90.909062
     -4.959960     44.010165     44.010165     88.020331
     -4.949950     41.852627     41.852627     83.705254
     -4.939940     39.134721     39.134721     78.269443
     -4.929930     36.122266     36.122266     72.244531
     -4.919920     33.218039     33.218039     66.436078
     -4.909910     30.955836     30.955836     61.911673
     -4.899900     29.946138     29.946138     59.892276
     -4.889890     30.753293     30.753293     61.506585
     -4.879880     33.704322     33.704322     67.408644
     -4.869870     38.677793     38.677793     77.355587
     -4.859860     44.973410     44.973410     89.946821
     -4.849850     51.371744     51.371744    102.743487
     -4.839840     56.426100     56.426100    112.852200
     -4.829830     58.905688     58.905688    117.811376
     -4.819820     58.205375     58.205375    116.410751
     -4.809810     54.530479     54.530479    109.060958
     -4.799800     48.772870     48.772870     97.545739
     -4.789790     42.152961     42.152961     84.305922
     -4.779780     35.809439     35.809439     71.618878
     -4.769770     30.512809     30.512809     61.025618
     -4.759760     26.580541     26.580541     53.161081
     -4.749750     23.958608     23.958608     47.917216
     -4.739740     22.375416     22.375416     44.750832
     -4.729730     21.483519     21.483519     42.967039
     -4.719720     20.949098     20.949098     41.898195
     -4.709710     20.489939     20.489939     40.979878
     -4.699700     19.883701     19.883701     39.767403
     -4.689690     18.972922     18.972922     37.945844
     -4.679680     17.686937     17.686937     35.373874
     -4.669670     16.084703     16.084703     32.169407
     -4.659660     14.401045     14.401045     28.802091
     -4.649650     13.063701     13.063701     26.127401
     -4.639640     12.650195     12.650195     25.300391
     -4.629630     13.771812     13.771812     27.543623
     -4.619620     16.898219     16.898219     33.796437
     -4.609610     22.163242     22.163242     44.326485
     -4.599600     29.215391     29.215391     58.430783
     -4.589590     37.187075     37.187075     74.374149
     -4.579580     44.837186     44.837186     89.674371
     -4.569570     50.862506     50.862506    101.725012
     -4.559560     54.290524     54.290524    108.581049
     -4.549550     54.804717     54.804717    109.609434
     -4.539540     52.858945     52.858945    105.717890
     -4.529530     49.520186     49.520186     99.040373
     -4.519520     46.098737     46.098737     92.197474
     -4.509510     43.717476     43.717476     87.434953
     -4.499499     42.988724     42.988724     85.977449
     -4.489489     43.905427     43.905427     87.810854
     -4.479479     45.951348     45.951348     91.902697
     -4.469469     48.346560     48.346560     96.693121
     -4.459459     50.309112     50.309112    100.618225
     -4.449449     51.239038     51.239038    102.478077
     -4.439439     50.793292     50.793292    101.586583
     -4.429429     48.880828     48.880828     97.761657
     -4.419419     45.632592     45.632592     91.265184
     -4.409409     41.382252     41.382252     82.764505
     -4.399399     36.649997     36.649997     73.299993
     -4.389389     32.090320     32.090320     64.180640
     -4.379379     28.373625     28.373625     56.747250
     -4.369369     26.017682     26.017682     52.035365
     -4.359359     25.234540     25.234540     50.469081
     -4.349349     25.871206     25.871206     51.742412
     -4.339339     27.483705     27.483705     54.967410
     -4.329329     29.516597     29.516597     59.033194
     -4.319319     31.506822     31.506822     63.013644
     -4.309309     33.223909     33.223909     66.447819
     -4.299299     34.697484     34.697484     69.394967
     -4.289289     36.138314     36.138314     72.276628
     -4.279279     37.797566     37.797566     75.595133
     -4.269269     39.817820     39.817820     79.635639
     -4.259259     42.120792     42.120792     84.241585
     -4.249249     44.367880     44.367880     88.735760
     -4.239239     46.021096     46.021096     92.042192
     -4.229229     46.507701     46.507701     93.015402
     -4.219219     45.443662     45.443662     90.887325
     -4.209209     42.821598     42.821598     85.643196
     -4.199199     39.061202     39.061202     78.122404
     -4.189189     34.878301     34.878301     69.756602
     -4.179179     31.026345     31.026345     62.052691
     -4.169169     28.037652     28.037652     56.075304
     -4.159159     26.090142     26.090142     52.180284
     -4.149149     25.051096     25.051096     50.102192
     -4.139139     24.653150     24.653150     49.306300
     -4.129129     24.695939     24.695939     49.391878
     -4.119119     25.164957     25.164957     50.329914
     -4.109109     26.207624     26.207624     52.415247
     -4.099099     27.979100     27.979100     55.958200
     -4.089089     30.439146     30.439146     60.878292
     -4.079079     33.217925     33.217925     66.435850
     -4.069069     35.648199     35.648199     71.296398
     -4.059059     36.980288     36.980288     73.960576
     -4.049049     36.690139     36.690139     73.380277
     -4.039039     34.724562     34.724562     69.449124
     -4.029029     31.551558     31.551558     63.103116
     -4.019019     27.990167     27.990167     55.980334
     -4.009009     24.916126     24.916126     49.832252
     -3.998999     22.997079     22.997079     45.994158
     -3.988989     22.571194     22.571194     45.142387
     -3.978979     23.681991     23.681991     47.363981
     -3.968969     26.194092     26.194092     52.388183
     -3.958959     29.894848     29.894848     59.789696
     -3.948949     34.534769     34.534769     69.069539
     -3.938939     39.826399     39.826399     79.652798
     -3.928929     45.452119     45.452119     90.904239
     -3.918919     51.107935     51.107935    102.215870
     -3.908909     56.560221     56.560221    113.120442
     -3.898899     61.662568     61.662568    123.325135
     -3.888889     66.297654     66.297654    132.595309
     -3.878879     70.263267     70.263267    140.526533
     -3.868869     73.173330     73.173330    146.346659
     -3.858859     74.456257     74.456257    148.912514
     -3.848849     73.491214     73.491214    146.982428
     -3.838839     69.847779     69.847779    139.695558
     -3.828829     63.527551     63.527551    127.055103
     -3.818819     55.088187     55.088187    110.176373
     -3.808809     45.575985     45.575985     91.151970
     -3.798799     36.279702     36.279702     72.559405
     -3.788789     28.397887     28.397887     56.795773
     -3.778779     22.742894     22.742894     45.485788
     -3.768769     19.577277     19.577277     39.154555
     -3.758759     18.616884     18.616884     37.233769
     -3.748749     19.175947     19.175947     38.351894
     -3.738739     20.395700     20.395700     40.791401
     -3.728729     21.490887     21.490887     42.981775
     -3.718719     21.956614     21.956614     43.913228
     -3.708709     21.691150     21.691150     43.382300
     -3.698699     21.005863     21.005863     42.011726
     -3.688689     20.514497     20.514497     41.028994
     -3.678679     20.922829     20.922829     41.845657
     -3.668669     22.773074     22.773074     45.546147
     -3.658659     26.223604     26.223604     52.447209
     -3.648649     30.946767     30.946767     61.893535
     -3.638639     36.193579     36.193579     72.387158
     -3.628629     41.009277     41.009277     82.018555
     -3.618619     44.516782     44.516782     89.033565
     -3.608609     46.154877     46.154877     92.309755
     -3.598599     45.785757     45.785757     91.571514
     -3.588589     43.655938     43.655938     87.311877
     -3.578579     40.260000     40.260000     80.520001
     -3.568569     36.179459     36.179459     72.358918
     -3.558559     31.947569     31.947569     63.895139
     -3.548549     27.956623     27.956623     55.913247
     -3.538539     24.408354     24.408354     48.816709
     -3.528529     21.312342     21.312342     42.624684
     -3.518519     18.539527     18.539527     37.079054
     -3.508509     15.921200     15.921200     31.842400
     -3.498498     13.357114     13.357114     26.714229
     -3.488488     10.884799     10.884799     21.769599
     -3.478478      8.679771      8.679771     17.359542
     -3.468468      6.991559      6.991559     13.983119
     -3.458458      6.048298      6.048298     12.096596
     -3.448448      5.968116      5.968116     11.936232
     -3.438438      6.704280      6.704280     13.408560
     -3.428428      8.037873      8.037873     16.075746
     -3.418418      9.623586      9.623586     19.247172
     -3.408408     11.084958     11.084958     22.169917
     -3.398398     12.137965     12.137965     24.275931
     -3.388388     12.701391     12.701391     25.402782
     -3.378378     12.945710     12.945710     25.891419
     -3.368368     13.251855     13.251855     26.503710
     -3.358358     14.090734     14.090734     28.181467
     -3.348348     15.869482     15.869482     31.738963
     -3.338338     18.798587     18.798587     37.597174
     -3.328328     22.813327     22.813327     45.626654
     -3.318318     27.554513     27.554513     55.109026
     -3.308308     32.401577     32.401577     64.803154
     -3.298298     36.559332     36.559332     73.118665
     -3.288288     39.206860     39.206860     78.413720
     -3.278278     39.698110     39.698110     79.396219
     -3.268268     37.761031     37.761031     75.522061
     -3.258258     33.610288     33.610288     67.220576
     -3.248248     27.906095     27.906095     55.812191
     -3.238238     21.560751     21.560751     43.121501
     -3.228228     15.472557     15.472557     30.945115
     -3.218218     10.300275     10.300275     20.600549
     -3.208208      6.359795      6.359795     12.719590
     -3.198198      3.655294      3.655294      7.310588
     -3.188188      1.997385      1.997385      3.994770
     -3.178178      1.141454      1.141454      2.282908
     -3.168168      0.897279      0.897279      1.794558
     -3.158158      1.191902      1.191902      2.383804
     -3.148148      2.088671      2.088671      4.177342
     -3.138138      3.769199      3.769199      7.538397
     -3.128128      6.479227      6.479227     12.958453
     -3.118118     10.437155     10.437155     20.874309
     -3.108108     15.714233     15.714233     31.428466
     -3.098098     22.116875     22.116875     44.233750
     -3.088088     29.121721     29.121721     58.243443
     -3.078078     35.914742     35.914742     71.829483
     -3.068068     41.554410     41.554410     83.108820
     -3.058058     45.222116     45.222116     90.444233
     -3.048048     46.468639     46.468639     92.937279
     -3.038038     45.350359     45.350359     90.700718
     -3.028028     42.391453     42.391453     84.782906
     -3.018018     38.390130     38.390130     76.780259
     -3.008008     34.160310     34.160310     68.320620
     -2.997998     30.321557     30.321557     60.643114
     -2.987988     27.211903     27.211903     54.423807
     -2.977978     24.930672     24.930672     49.861344
     -2.967968     23.461647     23.461647     46.923295
     -2.957958     22.802926     22.802926     45.605853
     -2.947948     23.037537     23.037537     46.075073
     -2.937938     24.309057     24.309057     48.618113
     -2.927928     26.710663     26.710663     53.421326
     -2.917918     30.142380     30.142380     60.284760
     -2.907908     34.218517     34.218517     68.437034
     -2.897898     38.294057     38.294057     76.588113
     -2.887888     41.623209     41.623209     83.246419
     -2.877878     43.592002     43.592002     87.184003
     -2.867868     43.920778     43.920778     87.841556
     -2.857858     42.740730     42.740730     85.481459
     -2.847848     40.508255     40.508255     81.016510
     -2.837838     37.799863     37.799863     75.599727
     -2.827828     35.086364     35.086364     70.172729
     -2.817818     32.589939     32.589939     65.179877
     -2.807808     30.280638     30.280638     60.561276
     -2.797798     27.995907     27.995907     55.991814
     -2.787788     25.606142     25.606142     51.212284
     -2.777778     23.132173     23.132173     46.264346
     -2.767768     20.754682     20.754682     41.509363
     -2.757758     18.721112     18.721112     37.442225
     -2.747748     17.215360     17.215360     34.430719
     -2.737738     16.274771     16.274771     32.549541
     -2.727728     15.805960     15.805960     31.611921
     -2.717718     15.685212     15.685212     31.370423
     -2.707708     15.871976     15.871976     31.743951
     -2.697698     16.453139     16.453139     32.906278
     -2.687688     17.580651     17.580651     35.161301
     -2.677678     19.338315     19.338315     38.676631
     -2.667668     21.626546     21.626546     43.253092
     -2.657658     24.148889     24.148889     48.297779
     -2.647648     26.520883     26.520883     53.041765
     -2.637638     28.440599     28.440599     56.881199
     -2.627628     29.816866     29.816866     59.633731
     -2.617618     30.777663     30.777663     61.555326
     -2.607608     31.560394     31.560394     63.120788
     -2.597598     32.360495     32.360495     64.720989
     -2.587588     33.231320     33.231320     66.462641
     -2.577578     34.078443     34.078443     68.156886
     -2.567568     34.720484     34.720484     69.440968
     -2.557558     34.955108     34.955108     69.910217
     -2.547548     34.594117     34.594117     69.188234
     -2.537538     33.482784     33.482784     66.965568
     -2.527528     31.541818     31.541818     63.083636
     -2.517518     28.842513     28.842513     57.685026
     -2.507508     25.674670     25.674670     51.349340
     -2.497497     22.543174     22.543174     45.086349
     -2.487487     20.058771     20.058771     40.117543
     -2.477477     18.751938     18.751938     37.503877
     -2.467467     18.890644     18.890644     37.781289
     -2.457457     20.389201     20.389201     40.778401
     -2.447447     22.854257     22.854257     45.708514
     -2.437437     25.749629     25.749629     51.499258
     -2.427427     28.606272     28.606272     57.212543
     -2.417417     31.182323     31.182323     62.364645
     -2.407407     33.500041     33.500041     67.000081
     -2.397397     35.742793     35.742793     71.485586
     -2.387387     38.061555     38.061555     76.123110
     -2.377377     40.386711     40.386711     80.773421
     -2.367367     42.344749     42.344749     84.689499
     -2.357357     43.335882     43.335882     86.671765
     -2.347347     42.753743     42.753743     85.507487
     -2.337337     40.255739     40.255739     80.511477
     -2.327327     35.960377     35.960377     71.920754
     -2.317317     30.477730     30.477730     60.955460
     -2.307307     24.758169     24.758169     49.516338
     -2.297297     19.828309     19.828309     39.656617
     -2.287287     16.524358     16.524358     33.048716
     -2.277277     15.314959     15.314959     30.629919
     -2.267267     16.250308     16.250308     32.500615
     -2.257257     19.020559     19.020559     38.041118
     -2.247247     23.078730     23.078730     46.157460
     -2.237237     27.780632     27.780632     55.561264
     -2.227227     32.503754     32.503754     65.007508
     -2.217217     36.720553     36.720553     73.441107
     -2.207207     40.020363     40.020363     80.040726
     -2.197197     42.097567     42.097567     84.195133
     -2.187187     42.741056     42.741056     85.482112
     -2.177177     41.855616     41.855616     83.711233
     -2.167167     39.515229     39.515229     79.030458
     -2.157157     36.009007     36.009007     72.018014
     -2.147147     31.824109     31.824109     63.648217
     -2.137137     27.537106     27.537106     55.074212
     -2.127127     23.643935     23.643935     47.287870
     -2.117117     20.408109     20.408109     40.816218
     -2.107107     17.807886     17.807886     35.615771
     -2.097097     15.610113     15.610113     31.220225
     -2.087087     13.526412     13.526412     27.052825
     -2.077077     11.364975     11.364975     22.729950
     -2.067067      9.104215      9.104215     18.208430
     -2.057057      6.868409      6.868409     13.736819
     -2.047047      4.840607      4.840607      9.681215
     -2.037037      3.171202      3.171202      6.342404
     -2.027027      1.925941      1.925941      3.851882
     -2.017017      1.083991      1.083991      2.167981
     -2.007007      0.569600      0.569600      1.139200
     -1.996997      0.292602      0.292602      0.585204
     -1.986987      0.180420      0.180420      0.360840
     -1.976977      0.196514      0.196514      0.393028
     -1.966967      0.348160      0.348160      0.696320
     -1.956957      0.687269      0.687269      1.374537
     -1.946947      1.304006      1.304006      2.608013
     -1.936937      2.309126      2.309126      4.618252
     -1.926927      3.801583      3.801583      7.603165
     -1.916917      5.824818      5.824818     11.649637
     -1.906907      8.325106      8.325106     16.650213
     -1.896897     11.131482     11.131482     22.262963
     -1.886887     13.972457     13.972457     27.944914
     -1.876877     16.529956     16.529956     33.059911
     -1.866867     18.514061     18.514061     37.028122
     -1.856857     19.733794     19.733794     39.467589
     -1.846847     20.142537     20.142537     40.285074
     -1.836837     19.846005     19.846005     39.692010
     -1.826827     19.068827     19.068827     38.137655
     -1.816817     18.083346     18.083346     36.166693
     -1.806807     17.117024     17.117024     34.234049
     -1.796797     16.271606     16.271606     32.543212
     -1.786787     15.494401     15.494401     30.988802
     -1.776777     14.625037     14.625037     29.250074
     -1.766767     13.502280     13.502280     27.004560
     -1.756757     12.078705     12.078705     24.157410
     -1.746747     10.482939     10.482939     20.965878
     -1.736737      8.996872      8.996872     17.993745
     -1.726727      7.959753      7.959753     15.919507
     -1.716717      7.644654      7.644654     15.289308
     -1.706707      8.159872      8.159872     16.319743
     -1.696697      9.411839      9.411839     18.823677
     -1.686687     11.139311     11.139311     22.278621
     -1.676677     13.001193     13.001193     26.002386
     -1.666667     14.679437     14.679437     29.358873
     -1.656657     15.952493     15.952493     31.904986
     -1.646647     16.711250     16.711250     33.422501
     -1.636637     16.923924     16.923924     33.847848
     -1.626627     16.588453     16.588453     33.176905
