# EIG2DOS: Utility for SIESTA to obtain the electronic density of states
#  E. Artacho, Apr 1999, A. Garcia, Apr 2012
#  Nick R. Papior, Feb 2017
# ------------------------------------------
# Eigenvalues calculated from a non-polarized calculation
# Eigenvalues read from siesta.EIG
# Kpoint weights read from siesta.KP
# Using smearing parameter:   0.0500
# Using 1000 points in the energy range
# Selected bands: 1 to: 2981
# Emin, Emax in file for selected band(s):    -27.2056450    218.3875430
# Nbands, Nspin, Nk   =   2981     1     1
# E_F                 =    -4.2133 eV --> (shifted to ZERO)
# Broadening          =     0.0500 eV
#
#        E            N(up)  (=)   N(down)         Ntot
     -5.000000     31.624458     31.624458     63.248915
     -4.989990     36.258713     36.258713     72.517426
     -4.979980     40.641826     40.641826     81.283652
     -4.969970     44.065724     44.065724     88.131447
     -4.959960     45.903926     45.903926     91.807851
     -4.949950     45.817278     45.817278     91.634556
     -4.939940     43.875416     43.875416     87.750832
     -4.929930     40.555606     40.555606     81.111212
     -4.919920     36.638018     36.638018     73.276036
     -4.909910     33.048938     33.048938     66.097876
     -4.899900     30.694915     30.694915     61.389829
     -4.889890     30.300100     30.300100     60.600201
     -4.879880     32.243625     32.243625     64.487249
     -4.869870     36.415143     36.415143     72.830287
     -4.859860     42.146957     42.146957     84.293914
     -4.849850     48.295494     48.295494     96.590988
     -4.839840     53.501177     53.501177    107.002355
     -4.829830     56.566614     56.566614    113.133227
     -4.819820     56.813599     56.813599    113.627198
     -4.809810     54.267968     54.267968    108.535935
     -4.799800     49.594724     49.594724     99.189449
     -4.789790     43.824032     43.824032     87.648064
     -4.779780     38.000826     38.000826     76.001651
     -4.769770     32.905411     32.905411     65.810822
     -4.759760     28.931138     28.931138     57.862277
     -4.749750     26.116159     26.116159     52.232318
     -4.739740     24.264202     24.264202     48.528404
     -4.729730     23.078444     23.078444     46.156888
     -4.719720     22.260196     22.260196     44.520393
     -4.709710     21.561951     21.561951     43.123903
     -4.699700     20.811023     20.811023     41.622047
     -4.689690     19.927681     19.927681     39.855362
     -4.679680     18.951247     18.951247     37.902495
     -4.669670     18.066579     18.066579     36.133158
     -4.659660     17.605688     17.605688     35.211376
     -4.649650     17.999628     17.999628     35.999256
     -4.639640     19.676852     19.676852     39.353704
     -4.629630     22.932218     22.932218     45.864437
     -4.619620     27.806563     27.806563     55.613126
     -4.609610     34.013305     34.013305     68.026609
     -4.599600     40.935246     40.935246     81.870492
     -4.589590     47.703265     47.703265     95.406530
     -4.579580     53.358191     53.358191    106.716382
     -4.569570     57.076527     57.076527    114.153053
     -4.559560     58.406532     58.406532    116.813063
     -4.549550     57.430905     57.430905    114.861810
     -4.539540     54.774620     54.774620    109.549240
     -4.529530     51.425993     51.425993    102.851986
     -4.519520     48.418945     48.418945     96.837890
     -4.509510     46.493274     46.493274     92.986549
     -4.499499     45.867598     45.867598     91.735197
     -4.489489     46.213427     46.213427     92.426853
     -4.479479     46.830586     46.830586     93.661173
     -4.469469     46.938414     46.938414     93.876829
     -4.459459     45.956012     45.956012     91.912024
     -4.449449     43.665628     43.665628     87.331256
     -4.439439     40.220202     40.220202     80.440404
     -4.429429     36.030998     36.030998     72.061996
     -4.419419     31.614963     31.614963     63.229926
     -4.409409     27.475063     27.475063     54.950127
     -4.399399     24.041576     24.041576     48.083151
     -4.389389     21.652378     21.652378     43.304756
     -4.379379     20.530570     20.530570     41.061139
     -4.369369     20.739434     20.739434     41.478868
     -4.359359     22.136675     22.136675     44.273351
     -4.349349     24.375071     24.375071     48.750141
     -4.339339     26.981918     26.981918     53.963836
     -4.329329     29.503777     29.503777     59.007554
     -4.319319     31.658757     31.658757     63.317514
     -4.309309     33.426201     33.426201     66.852401
     -4.299299     35.029035     35.029035     70.058070
     -4.289289     36.809707     36.809707     73.619414
     -4.279279     39.042925     39.042925     78.085850
     -4.269269     41.754150     41.754150     83.508300
     -4.259259     44.618671     44.618671     89.237342
     -4.249249     46.999134     46.999134     93.998267
     -4.239239     48.134408     48.134408     96.268816
     -4.229229     47.425372     47.425372     94.850745
     -4.219219     44.702160     44.702160     89.404321
     -4.209209     40.344438     40.344438     80.688877
     -4.199199     35.184027     35.184027     70.368054
     -4.189189     30.224685     30.224685     60.449370
     -4.179179     26.306533     26.306533     52.613067
     -4.169169     23.866043     23.866043     47.732086
     -4.159159     22.885281     22.885281     45.770561
     -4.149149     23.025219     23.025219     46.050439
     -4.139139     23.855150     23.855150     47.710301
     -4.129129     25.060972     25.060972     50.121943
     -4.119119     26.540896     26.540896     53.081793
     -4.109109     28.356025     28.356025     56.712050
     -4.099099     30.569992     30.569992     61.139985
     -4.089089     33.065401     33.065401     66.130802
     -4.079079     35.444444     35.444444     70.888888
     -4.069069     37.089904     37.089904     74.179807
     -4.059059     37.383166     37.383166     74.766333
     -4.049049     35.984181     35.984181     71.968361
     -4.039039     33.030602     33.030602     66.061204
     -4.029029     29.147010     29.147010     58.294020
     -4.019019     25.254750     25.254750     50.509500
     -4.009009     22.277004     22.277004     44.554008
     -3.998999     20.877880     20.877880     41.755761
     -3.988989     21.337529     21.337529     42.675058
     -3.978979     23.580168     23.580168     47.160337
     -3.968969     27.296619     27.296619     54.593238
     -3.958959     32.079299     32.079299     64.158598
     -3.948949     37.516722     37.516722     75.033445
     -3.938939     43.242709     43.242709     86.485419
     -3.928929     48.963074     48.963074     97.926148
     -3.918919     54.474090     54.474090    108.948181
     -3.908909     59.660445     59.660445    119.320889
     -3.898899     64.448887     64.448887    128.897774
     -3.888889     68.715343     68.715343    137.430686
     -3.878879     72.184343     72.184343    144.368685
     -3.868869     74.386681     74.386681    148.773362
     -3.858859     74.728086     74.728086    149.456171
     -3.848849     72.669701     72.669701    145.339403
     -3.838839     67.958464     67.958464    135.916928
     -3.828829     60.808087     60.808087    121.616175
     -3.818819     51.942250     51.942250    103.884499
     -3.808809     42.466933     42.466933     84.933867
     -3.798799     33.610813     33.610813     67.221627
     -3.788789     26.424876     26.424876     52.849752
     -3.778779     21.541887     21.541887     43.083774
     -3.768769     19.064676     19.064676     38.129352
     -3.758759     18.601426     18.601426     37.202853
     -3.748749     19.421373     19.421373     38.842746
     -3.738739     20.678966     20.678966     41.357932
     -3.728729     21.647961     21.647961     43.295923
     -3.718719     21.911607     21.911607     43.823215
     -3.708709     21.465667     21.465667     42.931334
     -3.698699     20.706680     20.706680     41.413360
     -3.688689     20.300699     20.300699     40.601397
     -3.678679     20.958293     20.958293     41.916586
     -3.668669     23.175176     23.175176     46.350352
     -3.658659     27.022119     27.022119     54.044237
     -3.648649     32.066076     32.066076     64.132152
     -3.638639     37.465240     37.465240     74.930480
     -3.628629     42.211980     42.211980     84.423960
     -3.618619     45.430788     45.430788     90.861576
     -3.608609     46.613294     46.613294     93.226588
     -3.598599     45.707925     45.707925     91.415850
     -3.588589     43.056541     43.056541     86.113083
     -3.578579     39.236044     39.236044     78.472087
     -3.568569     34.882101     34.882101     69.764201
     -3.558559     30.546951     30.546951     61.093903
     -3.548549     26.607543     26.607543     53.215086
     -3.538539     23.224062     23.224062     46.448123
     -3.528529     20.352022     20.352022     40.704043
     -3.518519     17.811048     17.811048     35.622095
     -3.508509     15.395507     15.395507     30.791013
     -3.498498     12.986970     12.986970     25.973941
     -3.488488     10.620642     10.620642     21.241285
     -3.478478      8.478906      8.478906     16.957812
     -3.468468      6.821302      6.821302     13.642605
     -3.458458      5.886352      5.886352     11.772705
     -3.448448      5.803314      5.803314     11.606628
     -3.438438      6.538659      6.538659     13.077319
     -3.428428      7.888677      7.888677     15.777354
     -3.418418      9.522756      9.522756     19.045513
     -3.408408     11.074566     11.074566     22.149133
     -3.398398     12.262053     12.262053     24.524105
     -3.388388     12.996576     12.996576     25.993153
     -3.378378     13.433806     13.433806     26.867612
     -3.368368     13.937842     13.937842     27.875683
     -3.358358     14.969318     14.969318     29.938636
     -3.348348     16.942805     16.942805     33.885610
     -3.338338     20.104780     20.104780     40.209559
     -3.328328     24.459567     24.459567     48.919134
     -3.318318     29.740781     29.740781     59.481561
     -3.308308     35.417174     35.417174     70.834348
     -3.298298     40.738324     40.738324     81.476648
     -3.288288     44.842143     44.842143     89.684286
     -3.278278     46.932969     46.932969     93.865937
     -3.268268     46.493992     46.493992     92.987985
     -3.258258     43.454552     43.454552     86.909103
     -3.248248     38.232273     38.232273     76.464546
     -3.238238     31.622107     31.622107     63.244214
     -3.228228     24.577354     24.577354     49.154708
     -3.218218     17.974699     17.974699     35.949398
     -3.208208     12.450609     12.450609     24.901217
     -3.198198      8.350530      8.350530     16.701060
     -3.188188      5.777233      5.777233     11.554466
     -3.178178      4.688731      4.688731      9.377462
     -3.168168      4.990380      4.990380      9.980760
     -3.158158      6.584243      6.584243     13.168486
     -3.148148      9.367568      9.367568     18.735137
     -3.138138     13.196910     13.196910     26.393820
     -3.128128     17.845431     17.845431     35.690862
     -3.118118     22.977094     22.977094     45.954188
     -3.108108     28.149933     28.149933     56.299865
     -3.098098     32.851158     32.851158     65.702316
     -3.088088     36.563039     36.563039     73.126078
     -3.078078     38.854229     38.854229     77.708459
     -3.068068     39.478734     39.478734     78.957469
     -3.058058     38.447278     38.447278     76.894556
     -3.048048     36.030612     36.030612     72.061224
     -3.038038     32.677098     32.677098     65.354196
     -3.028028     28.872350     28.872350     57.744700
     -3.018018     25.007201     25.007201     50.014401
     -3.008008     21.320077     21.320077     42.640153
     -2.997998     17.936225     17.936225     35.872451
     -2.987988     14.968165     14.968165     29.936329
     -2.977978     12.608912     12.608912     25.217823
     -2.967968     11.160465     11.160465     22.320929
     -2.957958     10.980340     10.980340     21.960679
     -2.947948     12.369095     12.369095     24.738190
     -2.937938     15.442304     15.442304     30.884607
     -2.927928     20.031921     20.031921     40.063842
     -2.917918     25.653980     25.653980     51.307960
     -2.907908     31.565890     31.565890     63.131780
     -2.897898     36.913620     36.913620     73.827239
     -2.887888     40.935964     40.935964     81.871929
     -2.877878     43.161316     43.161316     86.322632
     -2.867868     43.521630     43.521630     87.043260
     -2.857858     42.332559     42.332559     84.665119
     -2.847848     40.143025     40.143025     80.286049
     -2.837838     37.517074     37.517074     75.034148
     -2.827828     34.843834     34.843834     69.687668
     -2.817818     32.257338     32.257338     64.514677
     -2.807808     29.691885     29.691885     59.383770
     -2.797798     27.029234     27.029234     54.058468
     -2.787788     24.249203     24.249203     48.498407
     -2.777778     21.499609     21.499609     42.999217
     -2.767768     19.052115     19.052115     38.104229
     -2.757758     17.178128     17.178128     34.356255
     -2.747748     16.024354     16.024354     32.048709
     -2.737738     15.564497     15.564497     31.128993
     -2.727728     15.653341     15.653341     31.306682
     -2.717718     16.142527     16.142527     32.285054
     -2.707708     16.976035     16.976035     33.952070
     -2.697698     18.196705     18.196705     36.393411
     -2.687688     19.857149     19.857149     39.714299
     -2.677678     21.899146     21.899146     43.798292
     -2.667668     24.094894     24.094894     48.189788
     -2.657658     26.106607     26.106607     52.213214
     -2.647648     27.639635     27.639635     55.279271
     -2.637638     28.595037     28.595037     57.190074
     -2.627628     29.121614     29.121614     58.243228
     -2.617618     29.531442     29.531442     59.062885
     -2.607608     30.131277     30.131277     60.262555
     -2.597598     31.070947     31.070947     62.141894
     -2.587588     32.286687     32.286687     64.573374
     -2.577578     33.546158     33.546158     67.092316
     -2.567568     34.541228     34.541228     69.082456
     -2.557558     34.967993     34.967993     69.935987
     -2.547548     34.574552     34.574552     69.149104
     -2.537538     33.200004     33.200004     66.400007
     -2.527528     30.831620     30.831620     61.663241
     -2.517518     27.670999     27.670999     55.341997
     -2.507508     24.162114     24.162114     48.324229
     -2.497497     20.933267     20.933267     41.866534
     -2.487487     18.646449     18.646449     37.292899
     -2.477477     17.802578     17.802578     35.605156
     -2.467467     18.582448     18.582448     37.164895
     -2.457457     20.793490     20.793490     41.586980
     -2.447447     23.948683     23.948683     47.897366
     -2.437437     27.447745     27.447745     54.895490
     -2.427427     30.785734     30.785734     61.571467
     -2.417417     33.699455     33.699455     67.398909
     -2.407407     36.186937     36.186937     72.373875
     -2.397397     38.392619     38.392619     76.785237
     -2.387387     40.416531     40.416531     80.833062
     -2.377377     42.147561     42.147561     84.295121
     -2.367367     43.215121     43.215121     86.430242
     -2.357357     43.098699     43.098699     86.197397
     -2.347347     41.354673     41.354673     82.709347
     -2.337337     37.855300     37.855300     75.710601
     -2.327327     32.922785     32.922785     65.845571
     -2.317317     27.291705     27.291705     54.583411
     -2.307307     21.917615     21.917615     43.835229
     -2.297297     17.718918     17.718918     35.437836
     -2.287287     15.355717     15.355717     30.711434
     -2.277277     15.113186     15.113186     30.226371
     -2.267267     16.899783     16.899783     33.799567
     -2.257257     20.327637     20.327637     40.655273
     -2.247247     24.828695     24.828695     49.657389
     -2.237237     29.768507     29.768507     59.537014
     -2.227227     34.535080     34.535080     69.070161
     -2.217217     38.594830     38.594830     77.189660
     -2.207207     41.520351     41.520351     83.040703
     -2.197197     43.005269     43.005269     86.010537
     -2.187187     42.884903     42.884903     85.769806
     -2.177177     41.171220     41.171220     82.342440
     -2.167167     38.087452     38.087452     76.174904
     -2.157157     34.066470     34.066470     68.132941
     -2.147147     29.678783     29.678783     59.357567
     -2.137137     25.490193     25.490193     50.980386
     -2.127127     21.898433     21.898433     43.796866
     -2.117117     19.026277     19.026277     38.052555
     -2.107107     16.728707     16.728707     33.457414
     -2.097097     14.711334     14.711334     29.422669
     -2.087087     12.695800     12.695800     25.391599
     -2.077077     10.546772     10.546772     21.093545
     -2.067067      8.305985      8.305985     16.611969
     -2.057057      6.136536      6.136536     12.273072
     -2.047047      4.225938      4.225938      8.451876
     -2.037037      2.704797      2.704797      5.409595
     -2.027027      1.614062      1.614062      3.228123
     -2.017017      0.920523      0.920523      1.841046
     -2.007007      0.559141      0.559141      1.118281
     -1.996997      0.478141      0.478141      0.956282
     -1.986987      0.671486      0.671486      1.342972
     -1.976977      1.192441      1.192441      2.384882
     -1.966967      2.146107      2.146107      4.292214
     -1.956957      3.659820      3.659820      7.319640
     -1.946947      5.833614      5.833614     11.667228
     -1.936937      8.681352      8.681352     17.362705
     -1.926927     12.083237     12.083237     24.166475
     -1.916917     15.773903     15.773903     31.547806
     -1.906907     19.380288     19.380288     38.760575
     -1.896897     22.501729     22.501729     45.003458
     -1.886887     24.803095     24.803095     49.606189
     -1.876877     26.085091     26.085091     52.170182
     -1.866867     26.309838     26.309838     52.619676
     -1.856857     25.584939     25.584939     51.169878
     -1.846847     24.126903     24.126903     48.253805
     -1.836837     22.222328     22.222328     44.444657
     -1.826827     20.188013     20.188013     40.376025
     -1.816817     18.318448     18.318448     36.636896
     -1.806807     16.817096     16.817096     33.634193
     -1.796797     15.732210     15.732210     31.464420
     -1.786787     14.935679     14.935679     29.871358
     -1.776777     14.172570     14.172570     28.345140
     -1.766767     13.170840     13.170840     26.341680
     -1.756757     11.761524     11.761524     23.523047
     -1.746747      9.949892      9.949892     19.899785
     -1.736737      7.906395      7.906395     15.812790
     -1.726727      5.892412      5.892412     11.784824
     -1.716717      4.167976      4.167976      8.335952
     -1.706707      2.927752      2.927752      5.855503
     -1.696697      2.283775      2.283775      4.567551
     -1.686687      2.280976      2.280976      4.561953
     -1.676677      2.915184      2.915184      5.830368
     -1.666667      4.130249      4.130249      8.260498
     -1.656657      5.793828      5.793828     11.587655
     -1.646647      7.674982      7.674982     15.349964
     -1.636637      9.455764      9.455764     18.911528
     -1.626627     10.795651     10.795651     21.591302
