# EIG2DOS: Utility for SIESTA to obtain the electronic density of states
#  E. Artacho, Apr 1999, A. Garcia, Apr 2012
#  Nick R. Papior, Feb 2017
# ------------------------------------------
# Eigenvalues calculated from a non-polarized calculation
# Eigenvalues read from siesta.EIG
# Kpoint weights read from siesta.KP
# Using smearing parameter:   0.0500
# Using 1000 points in the energy range
# Selected bands: 1 to: 2981
# Emin, Emax in file for selected band(s):    -27.0544454    218.3247990
# Nbands, Nspin, Nk   =   2981     1     1
# E_F                 =    -4.2907 eV --> (shifted to ZERO)
# Broadening          =     0.0500 eV
#
#        E            N(up)  (=)   N(down)         Ntot
     -5.000000     44.296863     44.296863     88.593727
     -4.989990     46.439989     46.439989     92.879979
     -4.979980     47.535416     47.535416     95.070833
     -4.969970     47.578080     47.578080     95.156160
     -4.959960     46.596651     46.596651     93.193303
     -4.949950     44.664682     44.664682     89.329364
     -4.939940     41.936872     41.936872     83.873745
     -4.929930     38.688491     38.688491     77.376981
     -4.919920     35.338188     35.338188     70.676375
     -4.909910     32.441452     32.441452     64.882904
     -4.899900     30.642370     30.642370     61.284739
     -4.889890     30.567026     30.567026     61.134051
     -4.879880     32.650687     32.650687     65.301375
     -4.869870     36.928348     36.928348     73.856696
     -4.859860     42.872314     42.872314     85.744628
     -4.849850     49.388355     49.388355     98.776709
     -4.839840     55.040468     55.040468    110.080937
     -4.829830     58.464303     58.464303    116.928606
     -4.819820     58.810861     58.810861    117.621723
     -4.809810     56.019038     56.019038    112.038075
     -4.799800     50.789858     50.789858    101.579716
     -4.789790     44.287487     44.287487     88.574973
     -4.779780     37.724892     37.724892     75.449784
     -4.769770     32.023681     32.023681     64.047363
     -4.759760     27.661668     27.661668     55.323336
     -4.749750     24.704591     24.704591     49.409182
     -4.739740     22.939272     22.939272     45.878544
     -4.729730     22.017550     22.017550     44.035100
     -4.719720     21.560464     21.560464     43.120927
     -4.709710     21.216941     21.216941     42.433881
     -4.699700     20.695028     20.695028     41.390057
     -4.689690     19.786617     19.786617     39.573234
     -4.679680     18.398547     18.398547     36.797093
     -4.669670     16.590301     16.590301     33.180602
     -4.659660     14.605023     14.605023     29.210046
     -4.649650     12.872349     12.872349     25.744697
     -4.639640     11.963760     11.963760     23.927520
     -4.629630     12.492609     12.492609     24.985218
     -4.619620     14.966189     14.966189     29.932378
     -4.609610     19.613784     19.613784     39.227567
     -4.599600     26.234294     26.234294     52.468588
     -4.589590     34.125691     34.125691     68.251382
     -4.579580     42.159136     42.159136     84.318272
     -4.569570     49.023466     49.023466     98.046931
     -4.559560     53.591688     53.591688    107.183376
     -4.549550     55.284270     55.284270    110.568540
     -4.539540     54.275245     54.275245    108.550490
     -4.529530     51.437230     51.437230    102.874460
     -4.519520     48.033249     48.033249     96.066497
     -4.509510     45.278687     45.278687     90.557374
     -4.499499     43.952884     43.952884     87.905769
     -4.489489     44.208490     44.208490     88.416980
     -4.479479     45.628634     45.628634     91.257269
     -4.469469     47.471275     47.471275     94.942549
     -4.459459     48.971478     48.971478     97.942955
     -4.449449     49.572962     49.572962     99.145925
     -4.439439     49.019731     49.019731     98.039461
     -4.429429     47.319462     47.319462     94.638925
     -4.419419     44.648478     44.648478     89.296956
     -4.409409     41.275035     41.275035     82.550070
     -4.399399     37.535493     37.535493     75.070986
     -4.389389     33.839008     33.839008     67.678017
     -4.379379     30.644727     30.644727     61.289454
     -4.369369     28.375631     28.375631     56.751262
     -4.359359     27.290110     27.290110     54.580220
     -4.349349     27.380836     27.380836     54.761672
     -4.339339     28.370487     28.370487     56.740975
     -4.329329     29.822520     29.822520     59.645039
     -4.319319     31.318656     31.318656     62.637312
     -4.309309     32.618401     32.618401     65.236802
     -4.299299     33.729634     33.729634     67.459267
     -4.289289     34.867071     34.867071     69.734142
     -4.279279     36.323632     36.323632     72.647265
     -4.269269     38.306099     38.306099     76.612199
     -4.259259     40.791695     40.791695     81.583389
     -4.249249     43.457710     43.457710     86.915421
     -4.239239     45.724149     45.724149     91.448299
     -4.229229     46.918799     46.918799     93.837598
     -4.219219     46.520822     46.520822     93.041645
     -4.209209     44.384652     44.384652     88.769303
     -4.199199     40.832176     40.832176     81.664352
     -4.189189     36.554033     36.554033     73.108065
     -4.179179     32.359196     32.359196     64.718393
     -4.169169     28.894910     28.894910     57.789820
     -4.159159     26.470863     26.470863     52.941727
     -4.149149     25.056629     25.056629     50.113259
     -4.139139     24.425635     24.425635     48.851270
     -4.129129     24.350752     24.350752     48.701504
     -4.119119     24.745626     24.745626     49.491253
     -4.109109     25.684263     25.684263     51.368526
     -4.099099     27.293657     27.293657     54.587314
     -4.089089     29.576647     29.576647     59.153294
     -4.079079     32.263814     32.263814     64.527628
     -4.069069     34.792522     34.792522     69.585043
     -4.059059     36.455813     36.455813     72.911626
     -4.049049     36.671392     36.671392     73.342784
     -4.039039     35.242350     35.242350     70.484701
     -4.029029     32.471873     32.471873     64.943747
     -4.019019     29.068844     29.068844     58.137688
     -4.009009     25.896241     25.896241     51.792482
     -3.998999     23.694825     23.694825     47.389651
     -3.988989     22.910344     22.910344     45.820689
     -3.978979     23.673555     23.673555     47.347110
     -3.968969     25.889064     25.889064     51.778127
     -3.958959     29.344404     29.344404     58.688808
     -3.948949     33.775113     33.775113     67.550225
     -3.938939     38.882567     38.882567     77.765134
     -3.928929     44.344876     44.344876     88.689751
     -3.918919     49.855087     49.855087     99.710173
     -3.908909     55.177884     55.177884    110.355768
     -3.898899     60.178073     60.178073    120.356147
     -3.888889     64.777358     64.777358    129.554716
     -3.878879     68.841976     68.841976    137.683953
     -3.868869     72.061290     72.061290    144.122581
     -3.858859     73.905005     73.905005    147.810010
     -3.848849     73.720405     73.720405    147.440810
     -3.838839     70.959400     70.959400    141.918800
     -3.828829     65.446337     65.446337    130.892674
     -3.818819     57.558730     57.558730    115.117461
     -3.808809     48.221940     48.221940     96.443879
     -3.798799     38.702898     38.702898     77.405795
     -3.788789     30.280152     30.280152     60.560304
     -3.778779     23.916776     23.916776     47.833551
     -3.768769     20.048272     20.048272     40.096543
     -3.758759     18.538350     18.538350     37.076700
     -3.748749     18.790350     18.790350     37.580701
     -3.738739     19.960626     19.960626     39.921252
     -3.728729     21.208057     21.208057     42.416115
     -3.718719     21.919808     21.919808     43.839616
     -3.708709     21.865141     21.865141     43.730282
     -3.698699     21.242614     21.242614     42.485228
     -3.688689     20.604374     20.604374     41.208748
     -3.678679     20.668319     20.668319     41.336638
     -3.668669     22.063063     22.063063     44.126125
     -3.658659     25.082147     25.082147     50.164295
     -3.648649     29.536061     29.536061     59.072121
     -3.638639     34.767453     34.767453     69.534906
     -3.628629     39.835034     39.835034     79.670067
     -3.618619     43.797928     43.797928     87.595856
     -3.608609     45.985329     45.985329     91.970659
     -3.598599     46.147736     46.147736     92.295471
     -3.588589     44.451063     44.451063     88.902126
     -3.578579     41.351061     41.351061     82.702122
     -3.568569     37.424657     37.424657     74.849314
     -3.558559     33.222259     33.222259     66.444518
     -3.548549     29.166857     29.166857     58.333714
     -3.538539     25.499715     25.499715     50.999429
     -3.528529     22.271507     22.271507     44.543014
     -3.518519     19.383933     19.383933     38.767866
     -3.508509     16.677588     16.677588     33.355175
     -3.498498     14.037685     14.037685     28.075371
     -3.488488     11.472545     11.472545     22.945091
     -3.478478      9.129744      9.129744     18.259488
     -3.468468      7.246687      7.246687     14.493375
     -3.458458      6.062729      6.062729     12.125459
     -3.448448      5.730058      5.730058     11.460115
     -3.438438      6.251539      6.251539     12.503078
     -3.428428      7.460249      7.460249     14.920499
     -3.418418      9.047579      9.047579     18.095157
     -3.408408     10.640720     10.640720     21.281439
     -3.398398     11.916463     11.916463     23.832926
     -3.388388     12.717018     12.717018     25.434036
     -3.378378     13.120052     13.120052     26.240103
     -3.368368     13.426162     13.426162     26.852325
     -3.358358     14.062932     14.062932     28.125865
     -3.348348     15.444292     15.444292     30.888583
     -3.338338     17.839870     17.839870     35.679740
     -3.328328     21.291653     21.291653     42.583306
     -3.318318     25.582495     25.582495     51.164989
     -3.308308     30.243159     30.243159     60.486318
     -3.298298     34.595385     34.595385     69.190769
     -3.288288     37.849509     37.849509     75.699018
     -3.278278     39.271870     39.271870     78.543739
     -3.268268     38.395221     38.395221     76.790443
     -3.258258     35.192779     35.192779     70.385558
     -3.248248     30.123260     30.123260     60.246521
     -3.238238     24.005792     24.005792     48.011584
     -3.228228     17.771593     17.771593     35.543187
     -3.218218     12.203088     12.203088     24.406176
     -3.208208      7.767992      7.767992     15.535985
     -3.198198      4.594668      4.594668      9.189336
     -3.188188      2.562524      2.562524      5.125048
     -3.178178      1.441440      1.441440      2.882879
     -3.168168      1.018360      1.018360      2.036720
     -3.158158      1.178294      1.178294      2.356587
     -3.148148      1.934429      1.934429      3.868859
     -3.138138      3.414247      3.414247      6.828495
     -3.128128      5.808510      5.808510     11.617020
     -3.118118      9.289473      9.289473     18.578946
     -3.108108     13.911963     13.911963     27.823925
     -3.098098     19.524600     19.524600     39.049200
     -3.088088     25.727797     25.727797     51.455594
     -3.078078     31.908208     31.908208     63.816416
     -3.068068     37.352688     37.352688     74.705376
     -3.058058     41.409318     41.409318     82.818636
     -3.048048     43.638830     43.638830     87.277660
     -3.038038     43.903225     43.903225     87.806449
     -3.028028     42.368896     42.368896     84.737793
     -3.018018     39.440281     39.440281     78.880563
     -3.008008     35.662725     35.662725     71.325450
     -2.997998     31.629040     31.629040     63.258081
     -2.987988     27.903585     27.903585     55.807169
     -2.977978     24.961839     24.961839     49.923677
     -2.967968     23.144224     23.144224     46.288449
     -2.957958     22.631897     22.631897     45.263793
     -2.947948     23.451760     23.451760     46.903520
     -2.937938     25.502146     25.502146     51.004292
     -2.927928     28.574729     28.574729     57.149458
     -2.917918     32.353751     32.353751     64.707501
     -2.907908     36.403019     36.403019     72.806038
     -2.897898     40.180109     40.180109     80.360218
     -2.887888     43.114868     43.114868     86.229736
     -2.877878     44.748610     44.748610     89.497221
     -2.867868     44.878328     44.878328     89.756655
     -2.857858     43.627670     43.627670     87.255340
     -2.847848     41.394771     41.394771     82.789542
     -2.837838     38.691208     38.691208     77.382416
     -2.827828     35.946651     35.946651     71.893302
     -2.817818     33.373128     33.373128     66.746255
     -2.807808     30.950408     30.950408     61.900815
     -2.797798     28.528933     28.528933     57.057866
     -2.787788     25.985534     25.985534     51.971067
     -2.777778     23.342803     23.342803     46.685606
     -2.767768     20.787912     20.787912     41.575824
     -2.757758     18.586453     18.586453     37.172906
     -2.747748     16.948008     16.948008     33.896015
     -2.737738     15.927520     15.927520     31.855039
     -2.727728     15.423479     15.423479     30.846957
     -2.717718     15.272960     15.272960     30.545921
     -2.707708     15.381100     15.381100     30.762200
     -2.697698     15.798127     15.798127     31.596254
     -2.687688     16.688270     16.688270     33.376539
     -2.677678     18.204266     18.204266     36.408533
     -2.667668     20.345427     20.345427     40.690855
     -2.657658     22.893463     22.893463     45.786926
     -2.647648     25.474995     25.474995     50.949989
     -2.637638     27.719603     27.719603     55.439205
     -2.627628     29.419758     29.419758     58.839515
     -2.617618     30.597405     30.597405     61.194810
     -2.607608     31.443871     31.443871     62.887742
     -2.597598     32.181524     32.181524     64.363047
     -2.587588     32.938298     32.938298     65.876596
     -2.577578     33.701317     33.701317     67.402633
     -2.567568     34.349025     34.349025     68.698050
     -2.557558     34.710347     34.710347     69.420694
     -2.547548     34.603582     34.603582     69.207164
     -2.537538     33.853909     33.853909     67.707819
     -2.527528     32.325554     32.325554     64.651108
     -2.517518     29.993840     29.993840     59.987680
     -2.507508     27.033022     27.033022     54.066045
     -2.497497     23.855628     23.855628     47.711257
     -2.487487     21.048537     21.048537     42.097073
     -2.477477     19.207947     19.207947     38.415895
     -2.467467     18.739448     18.739448     37.478896
     -2.457457     19.717124     19.717124     39.434248
     -2.447447     21.870984     21.870984     43.741969
     -2.437437     24.710795     24.710795     49.421591
     -2.427427     27.729166     27.729166     55.458331
     -2.417417     30.588526     30.588526     61.177051
     -2.407407     33.203510     33.203510     66.407020
     -2.397397     35.680459     35.680459     71.360918
     -2.387387     38.146994     38.146994     76.293989
     -2.377377     40.562186     40.562186     81.124371
     -2.367367     42.611737     42.611737     85.223475
     -2.357357     43.754081     43.754081     87.508163
     -2.347347     43.409860     43.409860     86.819719
     -2.337337     41.214762     41.214762     82.429523
     -2.327327     37.220726     37.220726     74.441451
     -2.317317     31.951979     31.951979     63.903958
     -2.307307     26.289667     26.289667     52.579335
     -2.297297     21.235623     21.235623     42.471246
     -2.287287     17.651506     17.651506     35.303011
     -2.277277     16.064942     16.064942     32.129884
     -2.267267     16.591690     16.591690     33.183380
     -2.257257     18.972424     18.972424     37.944848
     -2.247247     22.688518     22.688518     45.377036
     -2.237237     27.108628     27.108628     54.217256
     -2.227227     31.620306     31.620306     63.240612
     -2.217217     35.712958     35.712958     71.425916
     -2.207207     39.000008     39.000008     78.000017
     -2.197197     41.196612     41.196612     82.393224
     -2.187187     42.092412     42.092412     84.184824
     -2.177177     41.559226     41.559226     83.118452
     -2.167167     39.603859     39.603859     79.207718
     -2.157157     36.431837     36.431837     72.863674
     -2.147147     32.461208     32.461208     64.922417
     -2.137137     28.242924     28.242924     56.485847
     -2.127127     24.301170     24.301170     48.602339
     -2.117117     20.965818     20.965818     41.931637
     -2.107107     18.285564     18.285564     36.571128
     -2.097097     16.068504     16.068504     32.137009
     -2.087087     14.023841     14.023841     28.047682
     -2.077077     11.923580     11.923580     23.847161
     -2.067067      9.701353      9.701353     19.402707
     -2.057057      7.452160      7.452160     14.904320
     -2.047047      5.355957      5.355957     10.711913
     -2.037037      3.581492      3.581492      7.162984
     -2.027027      2.221051      2.221051      4.442102
     -2.017017      1.275857      1.275857      2.551714
     -2.007007      0.681225      0.681225      1.362449
     -1.996997      0.346917      0.346917      0.693834
     -1.986987      0.192367      0.192367      0.384734
     -1.976977      0.168574      0.168574      0.337149
     -1.966967      0.268321      0.268321      0.536643
     -1.956957      0.529173      0.529173      1.058345
     -1.946947      1.030639      1.030639      2.061278
     -1.936937      1.882191      1.882191      3.764382
     -1.926927      3.197150      3.197150      6.394299
     -1.916917      5.051831      5.051831     10.103662
     -1.906907      7.438806      7.438806     14.877613
     -1.896897     10.232331     10.232331     20.464662
     -1.886887     13.185501     13.185501     26.371002
     -1.876877     15.968850     15.968850     31.937700
     -1.866867     18.243006     18.243006     36.486011
     -1.856857     19.743447     19.743447     39.486893
     -1.846847     20.350620     20.350620     40.701240
     -1.836837     20.123280     20.123280     40.246561
     -1.826827     19.281894     19.281894     38.563787
     -1.816817     18.140477     18.140477     36.280955
     -1.806807     17.001756     17.001756     34.003513
     -1.796797     16.050638     16.050638     32.101277
     -1.786787     15.292944     15.292944     30.585887
     -1.776777     14.574712     14.574712     29.149425
     -1.766767     13.680182     13.680182     27.360365
     -1.756757     12.463252     12.463252     24.926504
     -1.746747     10.946933     10.946933     21.893865
     -1.736737      9.342725      9.342725     18.685451
     -1.726727      7.984828      7.984828     15.969656
     -1.716717      7.214229      7.214229     14.428458
     -1.706707      7.263510      7.263510     14.527021
     -1.696697      8.183411      8.183411     16.366821
     -1.686687      9.830117      9.830117     19.660233
     -1.676677     11.910178     11.910178     23.820356
     -1.666667     14.062453     14.062453     28.124907
     -1.656657     15.945445     15.945445     31.890891
     -1.646647     17.298910     17.298910     34.597819
     -1.636637     17.964892     17.964892     35.929785
     -1.626627     17.878684     17.878684     35.757367
