# EIG2DOS: Utility for SIESTA to obtain the electronic density of states
#  E. Artacho, Apr 1999, A. Garcia, Apr 2012
#  Nick R. Papior, Feb 2017
# ------------------------------------------
# Eigenvalues calculated from a non-polarized calculation
# Eigenvalues read from siesta.EIG
# Kpoint weights read from siesta.KP
# Using smearing parameter:   0.0500
# Using 1000 points in the energy range
# Selected bands: 1 to: 2981
# Emin, Emax in file for selected band(s):    -27.3789047    218.4121400
# Nbands, Nspin, Nk   =   2981     1     1
# E_F                 =    -4.1839 eV --> (shifted to ZERO)
# Broadening          =     0.0500 eV
#
#        E            N(up)  (=)   N(down)         Ntot
     -5.000000     34.133064     34.133064     68.266128
     -4.989990     39.396387     39.396387     78.792775
     -4.979980     43.943954     43.943954     87.887908
     -4.969970     46.925406     46.925406     93.850813
     -4.959960     47.771130     47.771130     95.542260
     -4.949950     46.385936     46.385936     92.771872
     -4.939940     43.181127     43.181127     86.362253
     -4.929930     38.956046     38.956046     77.912092
     -4.919920     34.701493     34.701493     69.402986
     -4.909910     31.400709     31.400709     62.801418
     -4.899900     29.862198     29.862198     59.724395
     -4.889890     30.579185     30.579185     61.158369
     -4.879880     33.610825     33.610825     67.221650
     -4.869870     38.515515     38.515515     77.031029
     -4.859860     44.394686     44.394686     88.789372
     -4.849850     50.085454     50.085454    100.170909
     -4.839840     54.471305     54.471305    108.942610
     -4.829830     56.804187     56.804187    113.608374
     -4.819820     56.903443     56.903443    113.806886
     -4.809810     55.142799     55.142799    110.285598
     -4.799800     52.234857     52.234857    104.469715
     -4.789790     48.918620     48.918620     97.837240
     -4.779780     45.695805     45.695805     91.391609
     -4.769770     42.725195     42.725195     85.450389
     -4.759760     39.894554     39.894554     79.789109
     -4.749750     36.999663     36.999663     73.999327
     -4.739740     33.918674     33.918674     67.837348
     -4.729730     30.693250     30.693250     61.386500
     -4.719720     27.493441     27.493441     54.986882
     -4.709710     24.509824     24.509824     49.019648
     -4.699700     21.850125     21.850125     43.700250
     -4.689690     19.506617     19.506617     39.013233
     -4.679680     17.415775     17.415775     34.831550
     -4.669670     15.578038     15.578038     31.156075
     -4.659660     14.170151     14.170151     28.340303
     -4.649650     13.581782     13.581782     27.163563
     -4.639640     14.339406     14.339406     28.678811
     -4.629630     16.927623     16.927623     33.855246
     -4.619620     21.562798     21.562798     43.125597
     -4.609610     28.004079     28.004079     56.008158
     -4.599600     35.492206     35.492206     70.984413
     -4.589590     42.875923     42.875923     85.751845
     -4.579580     48.916221     48.916221     97.832443
     -4.569570     52.672048     52.672048    105.344096
     -4.559560     53.813586     53.813586    107.627172
     -4.549550     52.723542     52.723542    105.447085
     -4.539540     50.335679     50.335679    100.671357
     -4.529530     47.777713     47.777713     95.555426
     -4.519520     45.968613     45.968613     91.937225
     -4.509510     45.328780     45.328780     90.657559
     -4.499499     45.700717     45.700717     91.401434
     -4.489489     46.484867     46.484867     92.969734
     -4.479479     46.913409     46.913409     93.826817
     -4.469469     46.343472     46.343472     92.686944
     -4.459459     44.460324     44.460324     88.920648
     -4.449449     41.331933     41.331933     82.663867
     -4.439439     37.325239     37.325239     74.650478
     -4.429429     32.950306     32.950306     65.900612
     -4.419419     28.715279     28.715279     57.430558
     -4.409409     25.046332     25.046332     50.092665
     -4.399399     22.272759     22.272759     44.545517
     -4.389389     20.634767     20.634767     41.269534
     -4.379379     20.269374     20.269374     40.538748
     -4.369369     21.166474     21.166474     42.332949
     -4.359359     23.130935     23.130935     46.261870
     -4.349349     25.800110     25.800110     51.600219
     -4.339339     28.736886     28.736886     57.473772
     -4.329329     31.567762     31.567762     63.135525
     -4.319319     34.100651     34.100651     68.201301
     -4.309309     36.361740     36.361740     72.723481
     -4.299299     38.529791     38.529791     77.059582
     -4.289289     40.794381     40.794381     81.588762
     -4.279279     43.197879     43.197879     86.395758
     -4.269269     45.529277     45.529277     91.058554
     -4.259259     47.323193     47.323193     94.646385
     -4.249249     47.982948     47.982948     95.965896
     -4.239239     46.997667     46.997667     93.995334
     -4.229229     44.174053     44.174053     88.348107
     -4.219219     39.779896     39.779896     79.559792
     -4.209209     34.521308     34.521308     69.042616
     -4.199199     29.346727     29.346727     58.693455
     -4.189189     25.153297     25.153297     50.306593
     -4.179179     22.518978     22.518978     45.037957
     -4.169169     21.570037     21.570037     43.140074
     -4.159159     22.028193     22.028193     44.056386
     -4.149149     23.400740     23.400740     46.801480
     -4.139139     25.217983     25.217983     50.435966
     -4.129129     27.207346     27.207346     54.414693
     -4.119119     29.325712     29.325712     58.651425
     -4.109109     31.639532     31.639532     63.279065
     -4.099099     34.121380     34.121380     68.242760
     -4.089089     36.485324     36.485324     72.970647
     -4.079079     38.176012     38.176012     76.352024
     -4.069069     38.548264     38.548264     77.096527
     -4.059059     37.161451     37.161451     74.322902
     -4.049049     34.035055     34.035055     68.070111
     -4.039039     29.723537     29.723537     59.447074
     -4.029029     25.166730     25.166730     50.333460
     -4.019019     21.392702     21.392702     42.785404
     -4.009009     19.217098     19.217098     38.434195
     -3.998999     19.062659     19.062659     38.125319
     -3.988989     20.941578     20.941578     41.883157
     -3.978979     24.560256     24.560256     49.120512
     -3.968969     29.467360     29.467360     58.934719
     -3.958959     35.179983     35.179983     70.359967
     -3.948949     41.263851     41.263851     82.527701
     -3.938939     47.376161     47.376161     94.752322
     -3.928929     53.283950     53.283950    106.567900
     -3.918919     58.854540     58.854540    117.709079
     -3.908909     64.004271     64.004271    128.008541
     -3.898899     68.607048     68.607048    137.214096
     -3.888889     72.398538     72.398538    144.797076
     -3.878879     74.935746     74.935746    149.871493
     -3.868869     75.659038     75.659038    151.318076
     -3.858859     74.055169     74.055169    148.110338
     -3.848849     69.863929     69.863929    139.727859
     -3.838839     63.241587     63.241587    126.483173
     -3.828829     54.807729     54.807729    109.615458
     -3.818819     45.548910     45.548910     91.097820
     -3.808809     36.607520     36.607520     73.215041
     -3.798799     29.023290     29.023290     58.046579
     -3.788789     23.505466     23.505466     47.010932
     -3.778779     20.297780     20.297780     40.595559
     -3.768769     19.166327     19.166327     38.332654
     -3.758759     19.505253     19.505253     39.010506
     -3.748749     20.526388     20.526388     41.052776
     -3.738739     21.482015     21.482015     42.964031
     -3.728729     21.865661     21.865661     43.731323
     -3.718719     21.542492     21.542492     43.084983
     -3.708709     20.776043     20.776043     41.552087
     -3.698699     20.139806     20.139806     40.279612
     -3.688689     20.329528     20.329528     40.659056
     -3.678679     21.922256     21.922256     43.844511
     -3.668669     25.153135     25.153135     50.306269
     -3.658659     29.787975     29.787975     59.575951
     -3.648649     35.146626     35.146626     70.293253
     -3.638639     40.279578     40.279578     80.559156
     -3.628629     44.237312     44.237312     88.474625
     -3.618619     46.331267     46.331267     92.662535
     -3.608609     46.292253     46.292253     92.584507
     -3.598599     44.284277     44.284277     88.568553
     -3.588589     40.796830     40.796830     81.593661
     -3.578579     36.478344     36.478344     72.956688
     -3.568569     31.972202     31.972202     63.944404
     -3.558559     27.791086     27.791086     55.582172
     -3.548549     24.243453     24.243453     48.486906
     -3.538539     21.419379     21.419379     42.838757
     -3.528529     19.239473     19.239473     38.478946
     -3.518519     17.553767     17.553767     35.107534
     -3.508509     16.250433     16.250433     32.500865
     -3.498498     15.320333     15.320333     30.640667
     -3.488488     14.842874     14.842874     29.685748
     -3.478478     14.904804     14.904804     29.809608
     -3.468468     15.504799     15.504799     31.009598
     -3.458458     16.502446     16.502446     33.004893
     -3.448448     17.637972     17.637972     35.275944
     -3.438438     18.605404     18.605404     37.210807
     -3.428428     19.139068     19.139068     38.278137
     -3.418418     19.081781     19.081781     38.163561
     -3.408408     18.426023     18.426023     36.852045
     -3.398398     17.332301     17.332301     34.664602
     -3.388388     16.123665     16.123665     32.247330
     -3.378378     15.245558     15.245558     30.491116
     -3.368368     15.183316     15.183316     30.366633
     -3.358358     16.347773     16.347773     32.695545
     -3.348348     18.957894     18.957894     37.915788
     -3.338338     22.953696     22.953696     45.907393
     -3.328328     27.963261     27.963261     55.926522
     -3.318318     33.336286     33.336286     66.672573
     -3.308308     38.249185     38.249185     76.498370
     -3.298298     41.874937     41.874937     83.749874
     -3.288288     43.584380     43.584380     87.168761
     -3.278278     43.113335     43.113335     86.226670
     -3.268268     40.621637     40.621637     81.243273
     -3.258258     36.609174     36.609174     73.218348
     -3.248248     31.726342     31.726342     63.452684
     -3.238238     26.572794     26.572794     53.145588
     -3.228228     21.575677     21.575677     43.151355
     -3.218218     16.979429     16.979429     33.958858
     -3.208208     12.910792     12.910792     25.821585
     -3.198198      9.454092      9.454092     18.908185
     -3.188188      6.693300      6.693300     13.386599
     -3.178178      4.719429      4.719429      9.438859
     -3.168168      3.626802      3.626802      7.253603
     -3.158158      3.515557      3.515557      7.031113
     -3.148148      4.494355      4.494355      8.988710
     -3.138138      6.660803      6.660803     13.321607
     -3.128128     10.043118     10.043118     20.086236
     -3.118118     14.513079     14.513079     29.026157
     -3.108108     19.711256     19.711256     39.422513
     -3.098098     25.039185     25.039185     50.078370
     -3.088088     29.754076     29.754076     59.508151
     -3.078078     33.152359     33.152359     66.304718
     -3.068068     34.773399     34.773399     69.546798
     -3.058058     34.529977     34.529977     69.059953
     -3.048048     32.700527     32.700527     65.401054
     -3.038038     29.789083     29.789083     59.578166
     -3.028028     26.329983     26.329983     52.659965
     -3.018018     22.739259     22.739259     45.478519
     -3.008008     19.277360     19.277360     38.554721
     -2.997998     16.115790     16.115790     32.231580
     -2.987988     13.442434     13.442434     26.884867
     -2.977978     11.530220     11.530220     23.060440
     -2.967968     10.727444     10.727444     21.454888
     -2.957958     11.374879     11.374879     22.749758
     -2.947948     13.685973     13.685973     27.371946
     -2.937938     17.634495     17.634495     35.268990
     -2.927928     22.888491     22.888491     45.776983
     -2.917918     28.819597     28.819597     57.639194
     -2.907908     34.601880     34.601880     69.203760
     -2.897898     39.389064     39.389064     78.778127
     -2.887888     42.525426     42.525426     85.050852
     -2.877878     43.718874     43.718874     87.437747
     -2.867868     43.104517     43.104517     86.209034
     -2.857858     41.163581     41.163581     82.327163
     -2.847848     38.524632     38.524632     77.049264
     -2.837838     35.731485     35.731485     71.462970
     -2.827828     33.081116     33.081116     66.162231
     -2.817818     30.600104     30.600104     61.200207
     -2.807808     28.155707     28.155707     56.311413
     -2.797798     25.627884     25.627884     51.255768
     -2.787788     23.041698     23.041698     46.083396
     -2.777778     20.590441     20.590441     41.180881
     -2.767768     18.548801     18.548801     37.097603
     -2.757758     17.140262     17.140262     34.280524
     -2.747748     16.444883     16.444883     32.889766
     -2.737738     16.400354     16.400354     32.800707
     -2.727728     16.882941     16.882941     33.765882
     -2.717718     17.799973     17.799973     35.599947
     -2.707708     19.120290     19.120290     38.240580
     -2.697698     20.819194     20.819194     41.638387
     -2.687688     22.785190     22.785190     45.570380
     -2.677678     24.773939     24.773939     49.547879
     -2.667668     26.467557     26.467557     52.935114
     -2.657658     27.620224     27.620224     55.240449
     -2.647648     28.200136     28.200136     56.400272
     -2.637638     28.428536     28.428536     56.857072
     -2.627628     28.679498     28.679498     57.358995
     -2.617618     29.294478     29.294478     58.588957
     -2.607608     30.417720     30.417720     60.835439
     -2.597598     31.936884     31.936884     63.873769
     -2.587588     33.539895     33.539895     67.079790
     -2.577578     34.832233     34.832233     69.664467
     -2.567568     35.445223     35.445223     70.890446
     -2.557558     35.103277     35.103277     70.206554
     -2.547548     33.664382     33.664382     67.328765
     -2.537538     31.160970     31.160970     62.321940
     -2.527528     27.842015     27.842015     55.684030
     -2.517518     24.182985     24.182985     48.365970
     -2.507508     20.824302     20.824302     41.648603
     -2.497497     18.430376     18.430376     36.860752
     -2.487487     17.507710     17.507710     35.015419
     -2.477477     18.250447     18.250447     36.500893
     -2.467467     20.478028     20.478028     40.956055
     -2.457457     23.695919     23.695919     47.391838
     -2.447447     27.262720     27.262720     54.525440
     -2.437437     30.603429     30.603429     61.206857
     -2.427427     33.385589     33.385589     66.771177
     -2.417417     35.583833     35.583833     71.167666
     -2.407407     37.400625     37.400625     74.801251
     -2.397397     39.074098     39.074098     78.148195
     -2.387387     40.662070     40.662070     81.324140
     -2.377377     41.914550     41.914550     83.829100
     -2.367367     42.315135     42.315135     84.630270
     -2.357357     41.290578     41.290578     82.581156
     -2.347347     38.495568     38.495568     76.991137
     -2.337337     34.031304     34.031304     68.062608
     -2.327327     28.486817     28.486817     56.973633
     -2.317317     22.785918     22.785918     45.571836
     -2.307307     17.920495     17.920495     35.840990
     -2.297297     14.692681     14.692681     29.385361
     -2.287287     13.557959     13.557959     27.115918
     -2.277277     14.592401     14.592401     29.184802
     -2.267267     17.549956     17.549956     35.099913
     -2.257257     21.957453     21.957453     43.914907
     -2.247247     27.209088     27.209088     54.418176
     -2.237237     32.645627     32.645627     65.291254
     -2.227227     37.619195     37.619195     75.238389
     -2.217217     41.549753     41.549753     83.099507
     -2.207207     43.979374     43.979374     87.958748
     -2.197197     44.628288     44.628288     89.256576
     -2.187187     43.450430     43.450430     86.900860
     -2.177177     40.673586     40.673586     81.347172
     -2.167167     36.795887     36.795887     73.591773
     -2.157157     32.509980     32.509980     65.019961
     -2.147147     28.549809     28.549809     57.099618
     -2.137137     25.496324     25.496324     50.992647
     -2.127127     23.612617     23.612617     47.225235
     -2.117117     22.778947     22.778947     45.557895
     -2.107107     22.558311     22.558311     45.116622
     -2.097097     22.365496     22.365496     44.730992
     -2.087087     21.670053     21.670053     43.340106
     -2.077077     20.156957     20.156957     40.313913
     -2.067067     17.795233     17.795233     35.590466
     -2.057057     14.806099     14.806099     29.612197
     -2.047047     11.558696     11.558696     23.117391
     -2.037037      8.441199      8.441199     16.882399
     -2.027027      5.754470      5.754470     11.508941
     -2.017017      3.658042      3.658042      7.316084
     -2.007007      2.173236      2.173236      4.346471
     -1.996997      1.227012      1.227012      2.454024
     -1.986987      0.711022      0.711022      1.422045
     -1.976977      0.533834      0.533834      1.067669
     -1.966967      0.654163      0.654163      1.308326
     -1.956957      1.091559      1.091559      2.183118
     -1.946947      1.914954      1.914954      3.829908
     -1.936937      3.210947      3.210947      6.421894
     -1.926927      5.037221      5.037221     10.074442
     -1.916917      7.373506      7.373506     14.747012
     -1.906907     10.088932     10.088932     20.177865
     -1.896897     12.943431     12.943431     25.886861
     -1.886887     15.628901     15.628901     31.257802
     -1.876877     17.838587     17.838587     35.677173
     -1.866867     19.341166     19.341166     38.682331
     -1.856857     20.036087     20.036087     40.072173
     -1.846847     19.975225     19.975225     39.950449
     -1.836837     19.344797     19.344797     38.689594
     -1.826827     18.407967     18.407967     36.815933
     -1.816817     17.418117     17.418117     34.836233
     -1.806807     16.528717     16.528717     33.057434
     -1.796797     15.738816     15.738816     31.477631
     -1.786787     14.906793     14.906793     29.813585
     -1.776777     13.833281     13.833281     27.666562
     -1.766767     12.373961     12.373961     24.747922
     -1.756757     10.523403     10.523403     21.046806
     -1.746747      8.428578      8.428578     16.857156
     -1.736737      6.333363      6.333363     12.666726
     -1.726727      4.493105      4.493105      8.986210
     -1.716717      3.106817      3.106817      6.213634
     -1.706707      2.293043      2.293043      4.586087
     -1.696697      2.102855      2.102855      4.205710
     -1.686687      2.542100      2.542100      5.084200
     -1.676677      3.575831      3.575831      7.151662
     -1.666667      5.107176      5.107176     10.214353
     -1.656657      6.947656      6.947656     13.895311
     -1.646647      8.810828      8.810828     17.621655
     -1.636637     10.355590     10.355590     20.711180
     -1.626627     11.279871     11.279871     22.559742
