# EIG2DOS: Utility for SIESTA to obtain the electronic density of states
#  E. Artacho, Apr 1999, A. Garcia, Apr 2012
#  Nick R. Papior, Feb 2017
# ------------------------------------------
# Eigenvalues calculated from a non-polarized calculation
# Eigenvalues read from siesta.EIG
# Kpoint weights read from siesta.KP
# Using smearing parameter:   0.0500
# Using 1000 points in the energy range
# Selected bands: 1 to: 2981
# Emin, Emax in file for selected band(s):    -27.1075227    218.3656050
# Nbands, Nspin, Nk   =   2981     1     1
# E_F                 =    -4.2360 eV --> (shifted to ZERO)
# Broadening          =     0.0500 eV
#
#        E            N(up)  (=)   N(down)         Ntot
     -5.000000     33.454041     33.454041     66.908081
     -4.989990     37.780309     37.780309     75.560619
     -4.979980     41.599025     41.599025     83.198049
     -4.969970     44.273625     44.273625     88.547251
     -4.959960     45.326521     45.326521     90.653043
     -4.949950     44.588890     44.588890     89.177780
     -4.939940     42.260561     42.260561     84.521121
     -4.929930     38.870032     38.870032     77.740063
     -4.919920     35.168415     35.168415     70.336831
     -4.909910     32.001670     32.001670     64.003340
     -4.899900     30.181947     30.181947     60.363895
     -4.889890     30.349098     30.349098     60.698197
     -4.879880     32.811884     32.811884     65.623768
     -4.869870     37.395576     37.395576     74.791152
     -4.859860     43.369978     43.369978     86.739956
     -4.849850     49.541044     49.541044     99.082088
     -4.839840     54.532464     54.532464    109.064928
     -4.829830     57.182930     57.182930    114.365859
     -4.819820     56.903616     56.903616    113.807232
     -4.809810     53.838902     53.838902    107.677804
     -4.799800     48.762071     48.762071     97.524142
     -4.789790     42.765882     42.765882     85.531765
     -4.779780     36.897731     36.897731     73.795463
     -4.769770     31.891097     31.891097     63.782194
     -4.759760     28.070091     28.070091     56.140182
     -4.749750     25.409032     25.409032     50.818065
     -4.739740     23.670445     23.670445     47.340891
     -4.729730     22.541739     22.541739     45.083479
     -4.719720     21.724458     21.724458     43.448915
     -4.709710     20.970190     20.970190     41.940380
     -4.699700     20.084839     20.084839     40.169678
     -4.689690     18.932349     18.932349     37.864699
     -4.679680     17.460569     17.460569     34.921139
     -4.669670     15.749975     15.749975     31.499949
     -4.659660     14.061401     14.061401     28.122802
     -4.649650     12.846355     12.846355     25.692710
     -4.639640     12.690737     12.690737     25.381475
     -4.629630     14.185645     14.185645     28.371289
     -4.619620     17.747022     17.747022     35.494044
     -4.609610     23.432176     23.432176     46.864352
     -4.599600     30.820475     30.820475     61.640949
     -4.589590     39.026962     39.026962     78.053924
     -4.579580     46.885378     46.885378     93.770756
     -4.569570     53.268365     53.268365    106.536730
     -4.559560     57.434747     57.434747    114.869494
     -4.549550     59.256155     59.256155    118.512310
     -4.539540     59.214207     59.214207    118.428415
     -4.529530     58.164005     58.164005    116.328010
     -4.519520     56.972188     56.972188    113.944375
     -4.509510     56.192459     56.192459    112.384918
     -4.499499     55.910030     55.910030    111.820060
     -4.489489     55.794256     55.794256    111.588511
     -4.479479     55.302420     55.302420    110.604840
     -4.469469     53.925690     53.925690    107.851379
     -4.459459     51.375340     51.375340    102.750680
     -4.449449     47.655598     47.655598     95.311196
     -4.439439     43.027414     43.027414     86.054827
     -4.429429     37.909033     37.909033     75.818067
     -4.419419     32.771044     32.771044     65.542089
     -4.409409     28.065555     28.065555     56.131111
     -4.399399     24.193932     24.193932     48.387864
     -4.389389     21.487206     21.487206     42.974411
     -4.379379     20.168932     20.168932     40.337865
     -4.369369     20.295839     20.295839     40.591678
     -4.359359     21.707391     21.707391     43.414781
     -4.349349     24.031144     24.031144     48.062287
     -4.339339     26.769680     26.769680     53.539359
     -4.329329     29.448717     29.448717     58.897434
     -4.319319     31.766198     31.766198     63.532396
     -4.309309     33.675477     33.675477     67.350954
     -4.299299     35.364827     35.364827     70.729654
     -4.289289     37.140240     37.140240     74.280481
     -4.279279     39.255056     39.255056     78.510112
     -4.269269     41.747445     41.747445     83.494890
     -4.259259     44.347522     44.347522     88.695045
     -4.249249     46.502106     46.502106     93.004212
     -4.239239     47.532027     47.532027     95.064055
     -4.229229     46.882802     46.882802     93.765604
     -4.219219     44.372780     44.372780     88.745560
     -4.209209     40.320908     40.320908     80.641815
     -4.199199     35.477665     35.477665     70.955329
     -4.189189     30.776621     30.776621     61.553242
     -4.179179     27.017672     27.017672     54.035343
     -4.169169     24.627677     24.627677     49.255353
     -4.159159     23.598958     23.598958     47.197916
     -4.149149     23.611738     23.611738     47.223477
     -4.139139     24.259527     24.259527     48.519054
     -4.129129     25.259016     25.259016     50.518033
     -4.119119     26.546257     26.546257     53.092514
     -4.109109     28.220605     28.220605     56.441211
     -4.099099     30.371082     30.371082     60.742165
     -4.089089     32.880446     32.880446     65.760892
     -4.079079     35.324079     35.324079     70.648157
     -4.069069     37.043961     37.043961     74.087922
     -4.059059     37.388332     37.388332     74.776664
     -4.049049     36.008688     36.008688     72.017375
     -4.039039     33.059973     33.059973     66.119946
     -4.029029     29.193863     29.193863     58.387727
     -4.019019     25.346399     25.346399     50.692798
     -4.009009     22.429678     22.429678     44.859355
     -3.998999     21.075421     21.075421     42.150842
     -3.988989     21.529356     21.529356     43.058711
     -3.978979     23.700639     23.700639     47.401279
     -3.968969     27.294490     27.294490     54.588981
     -3.958959     31.940467     31.940467     63.880933
     -3.948949     37.268672     37.268672     74.537345
     -3.938939     42.940564     42.940564     85.881128
     -3.928929     48.666907     48.666907     97.333815
     -3.918919     54.229621     54.229621    108.459242
     -3.908909     59.490401     59.490401    118.980801
     -3.898899     64.354807     64.354807    128.709614
     -3.888889     68.684470     68.684470    137.368939
     -3.878879     72.195931     72.195931    144.391863
     -3.868869     74.415393     74.415393    148.830785
     -3.858859     74.745991     74.745991    149.491983
     -3.848849     72.649974     72.649974    145.299947
     -3.838839     67.882079     67.882079    135.764159
     -3.828829     60.671465     60.671465    121.342930
     -3.818819     51.761498     51.761498    103.522995
     -3.808809     42.275187     42.275187     84.550374
     -3.798799     33.448528     33.448528     66.897056
     -3.788789     26.326572     26.326572     52.653143
     -3.778779     21.524554     21.524554     43.049107
     -3.768769     19.122201     19.122201     38.244401
     -3.758759     18.706888     18.706888     37.413776
     -3.748749     19.536223     19.536223     39.072445
     -3.738739     20.765956     20.765956     41.531912
     -3.728729     21.683627     21.683627     43.367253
     -3.718719     21.894294     21.894294     43.788588
     -3.708709     21.416362     21.416362     42.832725
     -3.698699     20.661973     20.661973     41.323945
     -3.688689     20.299660     20.299660     40.599320
     -3.678679     21.027384     21.027384     42.054768
     -3.668669     23.316689     23.316689     46.633378
     -3.658659     27.211192     27.211192     54.422385
     -3.648649     32.258382     32.258382     64.516764
     -3.638639     37.612758     37.612758     75.225516
     -3.628629     42.280146     42.280146     84.560293
     -3.618619     45.409390     45.409390     90.818779
     -3.608609     46.516816     46.516816     93.033632
     -3.598599     45.566687     45.566687     91.133374
     -3.588589     42.904235     42.904235     85.808469
     -3.578579     39.099602     39.099602     78.199205
     -3.568569     34.776710     34.776710     69.553420
     -3.558559     30.475393     30.475393     60.950786
     -3.548549     26.561755     26.561755     53.123510
     -3.538539     23.187907     23.187907     46.375815
     -3.528529     20.305765     20.305765     40.611529
     -3.518519     17.737898     17.737898     35.475796
     -3.508509     15.288838     15.288838     30.577676
     -3.498498     12.855257     12.855257     25.710513
     -3.488488     10.487525     10.487525     20.975051
     -3.478478      8.377868      8.377868     16.755737
     -3.468468      6.786602      6.786602     13.573203
     -3.458458      5.942764      5.942764     11.885529
     -3.448448      5.957045      5.957045     11.914090
     -3.438438      6.771594      6.771594     13.543188
     -3.428428      8.158355      8.158355     16.316710
     -3.418418      9.770121      9.770121     19.540242
     -3.408408     11.239286     11.239286     22.478572
     -3.398398     12.301384     12.301384     24.602768
     -3.388388     12.900600     12.900600     25.801201
     -3.378378     13.229903     13.229903     26.459805
     -3.368368     13.680669     13.680669     27.361338
     -3.358358     14.716889     14.716889     29.433778
     -3.348348     16.721803     16.721803     33.443607
     -3.338338     19.869189     19.869189     39.738378
     -3.328328     24.049133     24.049133     48.098265
     -3.318318     28.852305     28.852305     57.704610
     -3.308308     33.609492     33.609492     67.218984
     -3.298298     37.492569     37.492569     74.985139
     -3.288288     39.684021     39.684021     79.368042
     -3.278278     39.593524     39.593524     79.187048
     -3.268268     37.053743     37.053743     74.107485
     -3.258258     32.404800     32.404800     64.809601
     -3.248248     26.411469     26.411469     52.822937
     -3.238238     20.037890     20.037890     40.075780
     -3.228228     14.178630     14.178630     28.357260
     -3.218218      9.460637      9.460637     18.921274
     -3.208208      6.180498      6.180498     12.360995
     -3.198198      4.364138      4.364138      8.728275
     -3.188188      3.882585      3.882585      7.765170
     -3.178178      4.553224      4.553224      9.106447
     -3.168168      6.190740      6.190740     12.381479
     -3.158158      8.615206      8.615206     17.230412
     -3.148148     11.648385     11.648385     23.296769
     -3.138138     15.122831     15.122831     30.245661
     -3.128128     18.901943     18.901943     37.803886
     -3.118118     22.886586     22.886586     45.773172
     -3.108108     26.986641     26.986641     53.973281
     -3.098098     31.065099     31.065099     62.130199
     -3.088088     34.894427     34.894427     69.788854
     -3.078078     38.168345     38.168345     76.336690
     -3.068068     40.576587     40.576587     81.153174
     -3.058058     41.900452     41.900452     83.800905
     -3.048048     42.065903     42.065903     84.131806
     -3.038038     41.120984     41.120984     82.241967
     -3.028028     39.164149     39.164149     78.328298
     -3.018018     36.289908     36.289908     72.579816
     -3.008008     32.603186     32.603186     65.206373
     -2.997998     28.295743     28.295743     56.591486
     -2.987988     23.724924     23.724924     47.449849
     -2.977978     19.428562     19.428562     38.857123
     -2.967968     16.050313     16.050313     32.100625
     -2.957958     14.201314     14.201314     28.402628
     -2.947948     14.310058     14.310058     28.620117
     -2.937938     16.505592     16.505592     33.011184
     -2.927928     20.558880     20.558880     41.117761
     -2.917918     25.894036     25.894036     51.788072
     -2.907908     31.676511     31.676511     63.353023
     -2.897898     36.975501     36.975501     73.951002
     -2.887888     40.973117     40.973117     81.946234
     -2.877878     43.162218     43.162218     86.324437
     -2.867868     43.460583     43.460583     86.921166
     -2.857858     42.189683     42.189683     84.379365
     -2.847848     39.919438     39.919438     79.838877
     -2.837838     37.241341     37.241341     74.482682
     -2.827828     34.567722     34.567722     69.135445
     -2.817818     32.042558     32.042558     64.085116
     -2.807808     29.592742     29.592742     59.185484
     -2.797798     27.077477     27.077477     54.154954
     -2.787788     24.446010     24.446010     48.892020
     -2.777778     21.816444     21.816444     43.632889
     -2.767768     19.438696     19.438696     38.877393
     -2.757758     17.573694     17.573694     35.147389
     -2.747748     16.368552     16.368552     32.737103
     -2.737738     15.805865     15.805865     31.611730
     -2.727728     15.755247     15.755247     31.510494
     -2.717718     16.087311     16.087311     32.174622
     -2.707708     16.767982     16.767982     33.535965
     -2.697698     17.863627     17.863627     35.727254
     -2.687688     19.449497     19.449497     38.898995
     -2.677678     21.485130     21.485130     42.970260
     -2.667668     23.750587     23.750587     47.501174
     -2.657658     25.901813     25.901813     51.803626
     -2.647648     27.622781     27.622781     55.245562
     -2.637638     28.781905     28.781905     57.563811
     -2.627628     29.491916     29.491916     58.983832
     -2.617618     30.034155     30.034155     60.068310
     -2.607608     30.696339     30.696339     61.392678
     -2.597598     31.623379     31.623379     63.246758
     -2.587588     32.759786     32.759786     65.519573
     -2.577578     33.891793     33.891793     67.783587
     -2.567568     34.736146     34.736146     69.472291
     -2.557558     35.015389     35.015389     70.030777
     -2.547548     34.500896     34.500896     69.001792
     -2.537538     33.048349     33.048349     66.096698
     -2.527528     30.653495     30.653495     61.306991
     -2.517518     27.518596     27.518596     55.037193
     -2.507508     24.081058     24.081058     48.162115
     -2.497497     20.955152     20.955152     41.910304
     -2.487487     18.780904     18.780904     37.561807
     -2.477477     18.030600     18.030600     36.061200
     -2.467467     18.854815     18.854815     37.709630
     -2.457457     21.037992     21.037992     42.075984
     -2.447447     24.086921     24.086921     48.173841
     -2.437437     27.417490     27.417490     54.834981
     -2.427427     30.561152     30.561152     61.122304
     -2.417417     33.301431     33.301431     66.602862
     -2.407407     35.679486     35.679486     71.358971
     -2.397397     37.866590     37.866590     75.733179
     -2.387387     39.965816     39.965816     79.931633
     -2.377377     41.844630     41.844630     83.689261
     -2.367367     43.092629     43.092629     86.185257
     -2.357357     43.142601     43.142601     86.285202
     -2.347347     41.511419     41.511419     83.022837
     -2.337337     38.050832     38.050832     76.101664
     -2.327327     33.086139     33.086139     66.172277
     -2.317317     27.373961     27.373961     54.747922
     -2.307307     21.899861     21.899861     43.799722
     -2.297297     17.608945     17.608945     35.217889
     -2.287287     15.178320     15.178320     30.356640
     -2.277277     14.900049     14.900049     29.800099
     -2.267267     16.682365     16.682365     33.364730
     -2.257257     20.133214     20.133214     40.266427
     -2.247247     24.678307     24.678307     49.356614
     -2.237237     29.675993     29.675993     59.351986
     -2.227227     34.507160     34.507160     69.014320
     -2.217217     38.632057     38.632057     77.264114
     -2.207207     41.618141     41.618141     83.236281
     -2.197197     43.154306     43.154306     86.308612
     -2.187187     43.071251     43.071251     86.142503
     -2.177177     41.377316     41.377316     82.754633
     -2.167167     38.294747     38.294747     76.589494
     -2.157157     34.258955     34.258955     68.517909
     -2.147147     29.845499     29.845499     59.690998
     -2.137137     25.625308     25.625308     51.250616
     -2.127127     21.999255     21.999255     43.998511
     -2.117117     19.091104     19.091104     38.182208
     -2.107107     16.756344     16.756344     33.512687
     -2.097097     14.702535     14.702535     29.405070
     -2.087087     12.655212     12.655212     25.310423
     -2.077077     10.483516     10.483516     20.967031
     -2.067067      8.232021      8.232021     16.464043
     -2.057057      6.063492      6.063492     12.126983
     -2.047047      4.161789      4.161789      8.323578
     -2.037037      2.651327      2.651327      5.302653
     -2.027027      1.564560      1.564560      3.129120
     -2.017017      0.855716      0.855716      1.711432
     -2.007007      0.438565      0.438565      0.877130
     -1.996997      0.224820      0.224820      0.449640
     -1.986987      0.150518      0.150518      0.301036
     -1.976977      0.189405      0.189405      0.378809
     -1.966967      0.357961      0.357961      0.715923
     -1.956957      0.715514      0.715514      1.431028
     -1.946947      1.358101      1.358101      2.716203
     -1.936937      2.401064      2.401064      4.802128
     -1.926927      3.946492      3.946492      7.892984
     -1.916917      6.039011      6.039011     12.078022
     -1.906907      8.623836      8.623836     17.247673
     -1.896897     11.527629     11.527629     23.055258
     -1.886887     14.478831     14.478831     28.957662
     -1.876877     17.169350     17.169350     34.338699
     -1.866867     19.340860     19.340860     38.681721
     -1.856857     20.866413     20.866413     41.732827
     -1.846847     21.796343     21.796343     43.592685
     -1.836837     22.345250     22.345250     44.690500
     -1.826827     22.812107     22.812107     45.624214
     -1.816817     23.449172     23.449172     46.898344
     -1.806807     24.324976     24.324976     48.649952
     -1.796797     25.247214     25.247214     50.494428
     -1.786787     25.800472     25.800472     51.600944
     -1.776777     25.502613     25.502613     51.005226
     -1.766767     24.015578     24.015578     48.031155
     -1.756757     21.306992     21.306992     42.613985
     -1.746747     17.680875     17.680875     35.361751
     -1.736737     13.668204     13.668204     27.336408
     -1.726727      9.842944      9.842944     19.685889
     -1.716717      6.658256      6.658256     13.316511
     -1.706707      4.368841      4.368841      8.737681
     -1.696697      3.046276      3.046276      6.092552
     -1.686687      2.645392      2.645392      5.290783
     -1.676677      3.066189      3.066189      6.132378
     -1.666667      4.175984      4.175984      8.351968
     -1.656657      5.792103      5.792103     11.584206
     -1.646647      7.655317      7.655317     15.310634
     -1.636637      9.433376      9.433376     18.866753
     -1.626627     10.778082     10.778082     21.556165
