# EIG2DOS: Utility for SIESTA to obtain the electronic density of states
#  E. Artacho, Apr 1999, A. Garcia, Apr 2012
#  Nick R. Papior, Feb 2017
# ------------------------------------------
# Eigenvalues calculated from a non-polarized calculation
# Eigenvalues read from siesta.EIG
# Kpoint weights read from siesta.KP
# Using smearing parameter:   0.0500
# Using 1000 points in the energy range
# Selected bands: 1 to: 2981
# Emin, Emax in file for selected band(s):    -27.2083136    218.3851020
# Nbands, Nspin, Nk   =   2981     1     1
# E_F                 =    -4.2126 eV --> (shifted to ZERO)
# Broadening          =     0.0500 eV
#
#        E            N(up)  (=)   N(down)         Ntot
     -5.000000     36.346754     36.346754     72.693509
     -4.989990     40.366076     40.366076     80.732153
     -4.979980     43.405402     43.405402     86.810803
     -4.969970     44.964226     44.964226     89.928452
     -4.959960     44.796797     44.796797     89.593594
     -4.949950     42.992204     42.992204     85.984409
     -4.939940     39.956987     39.956987     79.913974
     -4.929930     36.328124     36.328124     72.656248
     -4.919920     32.863717     32.863717     65.727435
     -4.909910     30.340314     30.340314     60.680627
     -4.899900     29.449947     29.449947     58.899894
     -4.889890     30.671869     30.671869     61.343738
     -4.879880     34.116730     34.116730     68.233460
     -4.869870     39.393382     39.393382     78.786764
     -4.859860     45.587429     45.587429     91.174858
     -4.849850     51.422290     51.422290    102.844580
     -4.839840     55.591725     55.591725    111.183450
     -4.829830     57.151749     57.151749    114.303497
     -4.819820     55.807243     55.807243    111.614485
     -4.809810     51.966134     51.966134    103.932267
     -4.799800     46.544635     46.544635     93.089271
     -4.789790     40.624648     40.624648     81.249297
     -4.779780     35.120088     35.120088     70.240176
     -4.769770     30.578019     30.578019     61.156037
     -4.759760     27.154338     27.154338     54.308676
     -4.749750     24.720443     24.720443     49.440886
     -4.739740     23.018378     23.018378     46.036755
     -4.729730     21.791526     21.791526     43.583052
     -4.719720     20.853873     20.853873     41.707745
     -4.709710     20.099254     20.099254     40.198509
     -4.699700     19.478905     19.478905     38.957811
     -4.689690     18.983887     18.983887     37.967775
     -4.679680     18.655695     18.655695     37.311389
     -4.669670     18.619566     18.619566     37.239131
     -4.659660     19.109056     19.109056     38.218113
     -4.649650     20.446349     20.446349     40.892698
     -4.639640     22.963670     22.963670     45.927340
     -4.629630     26.881344     26.881344     53.762688
     -4.619620     32.178976     32.178976     64.357953
     -4.609610     38.503408     38.503408     77.006815
     -4.599600     45.156176     45.156176     90.312351
     -4.589590     51.193930     51.193930    102.387859
     -4.579580     55.646205     55.646205    111.292411
     -4.569570     57.802120     57.802120    115.604239
     -4.559560     57.463588     57.463588    114.927177
     -4.549550     55.048778     55.048778    110.097556
     -4.539540     51.479995     51.479995    102.959990
     -4.529530     47.885351     47.885351     95.770702
     -4.519520     45.229813     45.229813     90.459625
     -4.509510     44.020385     44.020385     88.040771
     -4.499499     44.190884     44.190884     88.381768
     -4.489489     45.190705     45.190705     90.381411
     -4.479479     46.221276     46.221276     92.442553
     -4.469469     46.517102     46.517102     93.034205
     -4.459459     45.568789     45.568789     91.137579
     -4.449449     43.225624     43.225624     86.451248
     -4.439439     39.673207     39.673207     79.346413
     -4.429429     35.330177     35.330177     70.660354
     -4.419419     30.726166     30.726166     61.452331
     -4.409409     26.405986     26.405986     52.811972
     -4.399399     22.868081     22.868081     45.736162
     -4.389389     20.515852     20.515852     41.031705
     -4.379379     19.600106     19.600106     39.200212
     -4.369369     20.157723     20.157723     40.315446
     -4.359359     21.981134     21.981134     43.962267
     -4.349349     24.656787     24.656787     49.313573
     -4.339339     27.680217     27.680217     55.360433
     -4.329329     30.609989     30.609989     61.219977
     -4.319319     33.194963     33.194963     66.389927
     -4.309309     35.418760     35.418760     70.837519
     -4.299299     37.444785     37.444785     74.889571
     -4.289289     39.488882     39.488882     78.977763
     -4.279279     41.671705     41.671705     83.343410
     -4.269269     43.905260     43.905260     87.810520
     -4.259259     45.856886     45.856886     91.713772
     -4.249249     47.015860     47.015860     94.031720
     -4.239239     46.858391     46.858391     93.716781
     -4.229229     45.063807     45.063807     90.127614
     -4.219219     41.694406     41.694406     83.388812
     -4.209209     37.245420     37.245420     74.490841
     -4.199199     32.520092     32.520092     65.040185
     -4.189189     28.370526     28.370526     56.741053
     -4.179179     25.418117     25.418117     50.836234
     -4.169169     23.880886     23.880886     47.761772
     -4.159159     23.580051     23.580051     47.160101
     -4.149149     24.108079     24.108079     48.216158
     -4.139139     25.065020     25.065020     50.130040
     -4.129129     26.243688     26.243688     52.487376
     -4.119119     27.673899     27.673899     55.347797
     -4.109109     29.506053     29.506053     59.012106
     -4.099099     31.796845     31.796845     63.593691
     -4.089089     34.319289     34.319289     68.638578
     -4.079079     36.520831     36.520831     73.041661
     -4.069069     37.683300     37.683300     75.366599
     -4.059059     37.224756     37.224756     74.449511
     -4.049049     34.991622     34.991622     69.983245
     -4.039039     31.382820     31.382820     62.765639
     -4.029029     27.237023     27.237023     54.474046
     -4.019019     23.544302     23.544302     47.088604
     -4.009009     21.130830     21.130830     42.261659
     -3.998999     20.459501     20.459501     40.919003
     -3.988989     21.605143     21.605143     43.210286
     -3.978979     24.363339     24.363339     48.726679
     -3.968969     28.398914     28.398914     56.797828
     -3.958959     33.354931     33.354931     66.709862
     -3.948949     38.899380     38.899380     77.798760
     -3.938939     44.735663     44.735663     89.471327
     -3.928929     50.610978     50.610978    101.221956
     -3.918919     56.328112     56.328112    112.656225
     -3.908909     61.736055     61.736055    123.472110
     -3.898899     66.676418     66.676418    133.352836
     -3.888889     70.898416     70.898416    141.796832
     -3.878879     73.995037     73.995037    147.990075
     -3.868869     75.421235     75.421235    150.842471
     -3.858859     74.619631     74.619631    149.239261
     -3.848849     71.220287     71.220287    142.440573
     -3.838839     65.234314     65.234314    130.468629
     -3.828829     57.153224     57.153224    114.306448
     -3.818819     47.900779     47.900779     95.801559
     -3.808809     38.643202     38.643202     77.286403
     -3.798799     30.518574     30.518574     61.037149
     -3.788789     24.373728     24.373728     48.747456
     -3.778779     20.588511     20.588511     41.177021
     -3.768769     19.032054     19.032054     38.064108
     -3.758759     19.151694     19.151694     38.303388
     -3.748749     20.159497     20.159497     40.318994
     -3.738739     21.261995     21.261995     42.523990
     -3.728729     21.875103     21.875103     43.750205
     -3.718719     21.773602     21.773602     43.547203
     -3.708709     21.139195     21.139195     42.278389
     -3.698699     20.491738     20.491738     40.983475
     -3.688689     20.515016     20.515016     41.030033
     -3.678679     21.819234     21.819234     43.638468
     -3.668669     24.709501     24.709501     49.419002
     -3.658659     29.039716     29.039716     58.079432
     -3.648649     34.211706     34.211706     68.423412
     -3.638639     39.329247     39.329247     78.658494
     -3.628629     43.453610     43.453610     86.907220
     -3.618619     45.863549     45.863549     91.727098
     -3.608609     46.224835     46.224835     92.449671
     -3.598599     44.622461     44.622461     89.244922
     -3.588589     41.472337     41.472337     82.944673
     -3.578579     37.369943     37.369943     74.739886
     -3.568569     32.933856     32.933856     65.867713
     -3.558559     28.677607     28.677607     57.355213
     -3.548549     24.922917     24.922917     49.845834
     -3.538539     21.764203     21.764203     43.528405
     -3.528529     19.096145     19.096145     38.192290
     -3.518519     16.703889     16.703889     33.407777
     -3.508509     14.387623     14.387623     28.775246
     -3.498498     12.070564     12.070564     24.141128
     -3.488488      9.843541      9.843541     19.687083
     -3.478478      7.931012      7.931012     15.862024
     -3.468468      6.600585      6.600585     13.201169
     -3.458458      6.057640      6.057640     12.115279
     -3.448448      6.362718      6.362718     12.725435
     -3.438438      7.394347      7.394347     14.788694
     -3.428428      8.867257      8.867257     17.734513
     -3.418418     10.406711     10.406711     20.813422
     -3.408408     11.666188     11.666188     23.332376
     -3.398398     12.455493     12.455493     24.910986
     -3.388388     12.830956     12.830956     25.661913
     -3.378378     13.104824     13.104824     26.209649
     -3.368368     13.761606     13.761606     27.523213
     -3.358358     15.309265     15.309265     30.618530
     -3.348348     18.118137     18.118137     36.236275
     -3.338338     22.296873     22.296873     44.593745
     -3.328328     27.631094     27.631094     55.262187
     -3.318318     33.588492     33.588492     67.176984
     -3.308308     39.387259     39.387259     78.774518
     -3.298298     44.126420     44.126420     88.252840
     -3.288288     46.968477     46.968477     93.936955
     -3.278278     47.339327     47.339327     94.678654
     -3.268268     45.083746     45.083746     90.167493
     -3.258258     40.514106     40.514106     81.028213
     -3.248248     34.326882     34.326882     68.653764
     -3.238238     27.417895     27.417895     54.835791
     -3.228228     20.668566     20.668566     41.337131
     -3.218218     14.778519     14.778519     29.557038
     -3.208208     10.187983     10.187983     20.375966
     -3.198198      7.088991      7.088991     14.177981
     -3.188188      5.491250      5.491250     10.982500
     -3.178178      5.298638      5.298638     10.597276
     -3.168168      6.364349      6.364349     12.728698
     -3.158158      8.516022      8.516022     17.032044
     -3.148148     11.561973     11.561973     23.123947
     -3.138138     15.294325     15.294325     30.588651
     -3.128128     19.493700     19.493700     38.987401
     -3.118118     23.925991     23.925991     47.851981
     -3.108108     28.321917     28.321917     56.643835
     -3.098098     32.349705     32.349705     64.699410
     -3.088088     35.613782     35.613782     71.227565
     -3.078078     37.711392     37.711392     75.422784
     -3.068068     38.343719     38.343719     76.687439
     -3.058058     37.430360     37.430360     74.860721
     -3.048048     35.156260     35.156260     70.312519
     -3.038038     31.912561     31.912561     63.825122
     -3.028028     28.158981     28.158981     56.317962
     -3.018018     24.286514     24.286514     48.573029
     -3.008008     20.556118     20.556118     41.112236
     -2.997998     17.134905     17.134905     34.269809
     -2.987988     14.188052     14.188052     28.376105
     -2.977978     11.956140     11.956140     23.912280
     -2.967968     10.765971     10.765971     21.531942
     -2.957958     10.965828     10.965828     21.931655
     -2.947948     12.812275     12.812275     25.624549
     -2.937938     16.350555     16.350555     32.701110
     -2.927928     21.329682     21.329682     42.659363
     -2.917918     27.186298     27.186298     54.372597
     -2.907908     33.119049     33.119049     66.238099
     -2.897898     38.251591     38.251591     76.503182
     -2.887888     41.847286     41.847286     83.694572
     -2.877878     43.505821     43.505821     87.011643
     -2.867868     43.263148     43.263148     86.526296
     -2.857858     41.545447     41.545447     83.090894
     -2.847848     38.988378     38.988378     77.976757
     -2.837838     36.196399     36.196399     72.392798
     -2.827828     33.548006     33.548006     67.096013
     -2.817818     31.130536     31.130536     62.261071
     -2.807808     28.821414     28.821414     57.642827
     -2.797798     26.457422     26.457422     52.914843
     -2.787788     23.991952     23.991952     47.983904
     -2.777778     21.555729     21.555729     43.111458
     -2.767768     19.398692     19.398692     38.797384
     -2.757758     17.761990     17.761990     35.523980
     -2.747748     16.766695     16.766695     33.533390
     -2.737738     16.387729     16.387729     32.775458
     -2.727728     16.520007     16.520007     33.040014
     -2.717718     17.079420     17.079420     34.158839
     -2.707708     18.057871     18.057871     36.115742
     -2.697698     19.487149     19.487149     38.974298
     -2.687688     21.337699     21.337699     42.675399
     -2.677678     23.434373     23.434373     46.868746
     -2.667668     25.467987     25.467987     50.935974
     -2.657658     27.116580     27.116580     54.233160
     -2.647648     28.208038     28.208038     56.416077
     -2.637638     28.817500     28.817500     57.635000
     -2.627628     29.229938     29.229938     58.459875
     -2.617618     29.785930     29.785930     59.571859
     -2.607608     30.703136     30.703136     61.406272
     -2.597598     31.974082     31.974082     63.948164
     -2.587588     33.381300     33.381300     66.762600
     -2.577578     34.594026     34.594026     69.188053
     -2.567568     35.275024     35.275024     70.550048
     -2.557558     35.150432     35.150432     70.300864
     -2.547548     34.046937     34.046937     68.093874
     -2.537538     31.928321     31.928321     63.856643
     -2.527528     28.945235     28.945235     57.890471
     -2.517518     25.470944     25.470944     50.941888
     -2.507508     22.074961     22.074961     44.149921
     -2.497497     19.408746     19.408746     38.817492
     -2.487487     18.028211     18.028211     36.056421
     -2.477477     18.220484     18.220484     36.440969
     -2.467467     19.909998     19.909998     39.819995
     -2.457457     22.688513     22.688513     45.377025
     -2.447447     25.962308     25.962308     51.924616
     -2.437437     29.160427     29.160427     58.320854
     -2.427427     31.920457     31.920457     63.840914
     -2.417417     34.174139     34.174139     68.348278
     -2.407407     36.094031     36.094031     72.188061
     -2.397397     37.921574     37.921574     75.843149
     -2.387387     39.753491     39.753491     79.506983
     -2.377377     41.391906     41.391906     82.783813
     -2.367367     42.345189     42.345189     84.690378
     -2.357357     42.000221     42.000221     84.000442
     -2.347347     39.898682     39.898682     79.797365
     -2.337337     35.987473     35.987473     71.974945
     -2.327327     30.718629     30.718629     61.437259
     -2.317317     24.950027     24.950027     49.900055
     -2.307307     19.699252     19.699252     39.398503
     -2.297297     15.866433     15.866433     31.732867
     -2.287287     14.034307     14.034307     28.068615
     -2.277277     14.393563     14.393563     28.787126
     -2.267267     16.776679     16.776679     33.553358
     -2.257257     20.750902     20.750902     41.501804
     -2.247247     25.724774     25.724774     51.449549
     -2.237237     31.042996     31.042996     62.085991
     -2.227227     36.061862     36.061862     72.123724
     -2.217217     40.206194     40.206194     80.412387
     -2.207207     43.012894     43.012894     86.025788
     -2.197197     44.169351     44.169351     88.338702
     -2.187187     43.553447     43.553447     87.106894
     -2.177177     41.270866     41.270866     82.541732
     -2.167167     37.667637     37.667637     75.335274
     -2.157157     33.286363     33.286363     66.572726
     -2.147147     28.749932     28.749932     57.499863
     -2.137137     24.596759     24.596759     49.193518
     -2.127127     21.132310     21.132310     42.264620
     -2.117117     18.369099     18.369099     36.738198
     -2.107107     16.087658     16.087658     32.175316
     -2.097097     13.985979     13.985979     27.971958
     -2.087087     11.838032     11.838032     23.676063
     -2.077077      9.584339      9.584339     19.168679
     -2.067067      7.324323      7.324323     14.648647
     -2.057057      5.236672      5.236672     10.473343
     -2.047047      3.484360      3.484360      6.968720
     -2.037037      2.153168      2.153168      4.306335
     -2.027027      1.241463      1.241463      2.482926
     -2.017017      0.689482      0.689482      1.378964
     -2.007007      0.424005      0.424005      0.848010
     -1.996997      0.398646      0.398646      0.797292
     -1.986987      0.620513      0.620513      1.241026
     -1.976977      1.160832      1.160832      2.321665
     -1.966967      2.147388      2.147388      4.294775
     -1.956957      3.734448      3.734448      7.468895
     -1.946947      6.048076      6.048076     12.096152
     -1.936937      9.115381      9.115381     18.230762
     -1.926927     12.801793     12.801793     25.603587
     -1.916917     16.789886     16.789886     33.579772
     -1.906907     20.624587     20.624587     41.249174
     -1.896897     23.820866     23.820866     47.641731
     -1.886887     25.995325     25.995325     51.990650
     -1.876877     26.966152     26.966152     53.932305
     -1.866867     26.781315     26.781315     53.562630
     -1.856857     25.673797     25.673797     51.347593
     -1.846847     23.977162     23.977162     47.954323
     -1.836837     22.041058     22.041058     44.082115
     -1.826827     20.166022     20.166022     40.332044
     -1.816817     18.554770     18.554770     37.109541
     -1.806807     17.275326     17.275326     34.550653
     -1.796797     16.247339     16.247339     32.494678
     -1.786787     15.272746     15.272746     30.545492
     -1.776777     14.116556     14.116556     28.233112
     -1.766767     12.610570     12.610570     25.221141
     -1.756757     10.730696     10.730696     21.461392
     -1.746747      8.608945      8.608945     17.217890
     -1.736737      6.478775      6.478775     12.957550
     -1.726727      4.589504      4.589504      9.179009
     -1.716717      3.136518      3.136518      6.273037
     -1.706707      2.235137      2.235137      4.470275
     -1.696697      1.934166      1.934166      3.868331
     -1.686687      2.242262      2.242262      4.484524
     -1.676677      3.138203      3.138203      6.276406
     -1.666667      4.552889      4.552889      9.105777
     -1.656657      6.335382      6.335382     12.670764
     -1.646647      8.233285      8.233285     16.466571
     -1.636637      9.917913      9.917913     19.835826
     -1.626627     11.064007     11.064007     22.128013
