# EIG2DOS: Utility for SIESTA to obtain the electronic density of states
#  E. Artacho, Apr 1999, A. Garcia, Apr 2012
#  Nick R. Papior, Feb 2017
# ------------------------------------------
# Eigenvalues calculated from a non-polarized calculation
# Eigenvalues read from siesta.EIG
# Kpoint weights read from siesta.KP
# Using smearing parameter:   0.0500
# Using 1000 points in the energy range
# Selected bands: 1 to: 2981
# Emin, Emax in file for selected band(s):    -27.0465394    218.3148850
# Nbands, Nspin, Nk   =   2981     1     1
# E_F                 =    -4.2954 eV --> (shifted to ZERO)
# Broadening          =     0.0500 eV
#
#        E            N(up)  (=)   N(down)         Ntot
     -5.000000     44.637394     44.637394     89.274789
     -4.989990     48.849940     48.849940     97.699881
     -4.979980     51.537780     51.537780    103.075560
     -4.969970     52.375436     52.375436    104.750873
     -4.959960     51.334891     51.334891    102.669783
     -4.949950     48.680071     48.680071     97.360143
     -4.939940     44.892512     44.892512     89.785024
     -4.929930     40.574991     40.574991     81.149983
     -4.919920     36.377882     36.377882     72.755764
     -4.909910     32.961293     32.961293     65.922587
     -4.899900     30.966049     30.966049     61.932098
     -4.889890     30.944936     30.944936     61.889873
     -4.879880     33.222859     33.222859     66.445719
     -4.869870     37.711079     37.711079     75.422158
     -4.859860     43.767067     43.767067     87.534133
     -4.849850     50.217114     50.217114    100.434227
     -4.839840     55.605976     55.605976    111.211952
     -4.829830     58.619452     58.619452    117.238905
     -4.819820     58.511047     58.511047    117.022094
     -4.809810     55.335043     55.335043    110.670087
     -4.799800     49.876947     49.876947     99.753894
     -4.789790     43.327508     43.327508     86.655016
     -4.779780     36.868874     36.868874     73.737748
     -4.769770     31.357025     31.357025     62.714051
     -4.759760     27.198775     27.198775     54.397551
     -4.749750     24.405721     24.405721     48.811442
     -4.739740     22.737004     22.737004     45.474008
     -4.729730     21.842515     21.842515     43.685030
     -4.719720     21.360702     21.360702     42.721404
     -4.709710     20.968413     20.968413     41.936825
     -4.699700     20.402584     20.402584     40.805168
     -4.689690     19.476822     19.476822     38.953643
     -4.679680     18.108471     18.108471     36.216942
     -4.669670     16.357870     16.357870     32.715740
     -4.659660     14.465200     14.465200     28.930400
     -4.649650     12.859537     12.859537     25.719073
     -4.639640     12.116463     12.116463     24.232927
     -4.629630     12.853913     12.853913     25.707826
     -4.619620     15.574474     15.574474     31.148948
     -4.609610     20.482677     20.482677     40.965355
     -4.599600     27.328026     27.328026     54.656051
     -4.589590     35.342600     35.342600     70.685199
     -4.579580     43.337402     43.337402     86.674805
     -4.569570     49.975696     49.975696     99.951393
     -4.559560     54.160335     54.160335    108.320671
     -4.549550     55.395727     55.395727    110.791454
     -4.539540     53.966589     53.966589    107.933177
     -4.529530     50.840413     50.840413    101.680826
     -4.519520     47.321794     47.321794     94.643589
     -4.509510     44.599356     44.599356     89.198712
     -4.499499     43.369211     43.369211     86.738421
     -4.489489     43.673632     43.673632     87.347264
     -4.479479     44.990379     44.990379     89.980758
     -4.469469     46.503102     46.503102     93.006204
     -4.459459     47.424338     47.424338     94.848676
     -4.449449     47.246691     47.246691     94.493382
     -4.439439     45.849865     45.849865     91.699731
     -4.429429     43.459678     43.459678     86.919357
     -4.419419     40.509876     40.509876     81.019753
     -4.409409     37.480557     37.480557     74.961115
     -4.399399     34.775480     34.775480     69.550960
     -4.389389     32.665333     32.665333     65.330665
     -4.379379     31.285613     31.285613     62.571226
     -4.369369     30.657012     30.657012     61.314024
     -4.359359     30.702473     30.702473     61.404946
     -4.349349     31.259086     31.259086     62.518172
     -4.339339     32.102710     32.102710     64.205421
     -4.329329     33.001043     33.001043     66.002086
     -4.319319     33.788283     33.788283     67.576567
     -4.309309     34.430774     34.430774     68.861548
     -4.299299     35.047962     35.047962     70.095924
     -4.289289     35.870169     35.870169     71.740337
     -4.279279     37.140979     37.140979     74.281958
     -4.269269     38.992955     38.992955     77.985909
     -4.259259     41.337127     41.337127     82.674254
     -4.249249     43.812014     43.812014     87.624028
     -4.239239     45.832708     45.832708     91.665415
     -4.229229     46.752531     46.752531     93.505063
     -4.219219     46.096147     46.096147     92.192295
     -4.209209     43.768185     43.768185     87.536370
     -4.199199     40.128650     40.128650     80.257300
     -4.189189     35.880895     35.880895     71.761790
     -4.179179     31.816458     31.816458     63.632916
     -4.169169     28.541167     28.541167     57.082335
     -4.159159     26.314146     26.314146     52.628293
     -4.149149     25.062850     25.062850     50.125699
     -4.139139     24.540672     24.540672     49.081344
     -4.129129     24.527083     24.527083     49.054167
     -4.119119     24.962186     24.962186     49.924373
     -4.109109     25.949859     25.949859     51.899718
     -4.099099     27.630675     27.630675     55.261349
     -4.089089     29.991874     29.991874     59.983749
     -4.079079     32.722441     32.722441     65.444881
     -4.069069     35.212949     35.212949     70.425898
     -4.059059     36.733186     36.733186     73.466373
     -4.049049     36.720742     36.720742     73.441484
     -4.039039     35.038737     35.038737     70.077474
     -4.029029     32.064965     32.064965     64.129930
     -4.019019     28.564011     28.564011     57.128022
     -4.009009     25.413785     25.413785     50.827569
     -3.998999     23.330163     23.330163     46.660325
     -3.988989     22.713973     22.713973     45.427946
     -3.978979     23.654814     23.654814     47.309627
     -3.968969     26.033516     26.033516     52.067033
     -3.958959     29.630320     29.630320     59.260640
     -3.948949     34.180710     34.180710     68.361419
     -3.938939     39.385494     39.385494     78.770987
     -3.928929     44.920662     44.920662     89.841324
     -3.918919     50.478963     50.478963    100.957927
     -3.908909     55.828067     55.828067    111.656134
     -3.898899     60.834723     60.834723    121.669446
     -3.888889     65.413759     65.413759    130.827519
     -3.878879     69.411503     69.411503    138.823006
     -3.868869     72.489950     72.489950    144.979900
     -3.858859     74.099450     74.099450    148.198901
     -3.848849     73.593882     73.593882    147.187765
     -3.838839     70.467058     70.467058    140.934116
     -3.828829     64.613571     64.613571    129.227142
     -3.818819     56.487352     56.487352    112.974704
     -3.808809     47.068884     47.068884     94.137768
     -3.798799     37.639160     37.639160     75.278321
     -3.788789     29.446023     29.446023     58.892046
     -3.778779     23.389239     23.389239     46.778479
     -3.768769     19.829383     19.829383     39.658766
     -3.758759     18.564696     18.564696     37.129391
     -3.748749     18.957684     18.957684     37.915367
     -3.738739     20.155538     20.155538     40.311075
     -3.728729     21.338792     21.338792     42.677583
     -3.718719     21.939489     21.939489     43.878979
     -3.708709     21.782256     21.782256     43.564512
     -3.698699     21.115937     21.115937     42.231874
     -3.688689     20.522906     20.522906     41.045813
     -3.678679     20.720957     20.720957     41.441914
     -3.668669     22.306640     22.306640     44.613280
     -3.658659     25.518518     25.518518     51.037036
     -3.648649     30.107195     30.107195     60.214390
     -3.638639     35.371411     35.371411     70.742823
     -3.628629     40.357040     40.357040     80.714079
     -3.618619     44.143944     44.143944     88.287887
     -3.608609     46.104903     46.104903     92.209806
     -3.598599     46.039201     46.039201     92.078402
     -3.588589     44.151368     44.151368     88.302735
     -3.578579     40.918502     40.918502     81.837005
     -3.568569     36.922506     36.922506     73.845013
     -3.558559     32.706759     32.706759     65.413517
     -3.548549     28.679271     28.679271     57.358542
     -3.538539     25.061809     25.061809     50.123619
     -3.528529     21.885567     21.885567     43.771135
     -3.518519     19.038729     19.038729     38.077457
     -3.508509     16.359209     16.359209     32.718417
     -3.498498     13.740869     13.740869     27.481739
     -3.488488     11.207200     11.207200     22.414400
     -3.478478      8.919784      8.919784     17.839567
     -3.468468      7.122102      7.122102     14.244204
     -3.458458      6.048309      6.048309     12.096617
     -3.448448      5.834498      5.834498     11.668995
     -3.438438      6.459947      6.459947     12.919895
     -3.428428      7.732631      7.732631     15.465261
     -3.418418      9.325439      9.325439     18.650878
     -3.408408     10.862052     10.862052     21.724103
     -3.398398     12.035662     12.035662     24.071325
     -3.388388     12.722648     12.722648     25.445297
     -3.378378     13.042842     13.042842     26.085683
     -3.368368     13.333406     13.333406     26.666811
     -3.358358     14.041384     14.041384     28.082767
     -3.348348     15.577658     15.577658     31.155315
     -3.338338     18.186816     18.186816     36.373632
     -3.328328     21.867512     21.867512     43.735023
     -3.318318     26.346468     26.346468     52.692936
     -3.308308     31.094705     31.094705     62.189410
     -3.298298     35.385968     35.385968     70.771936
     -3.288288     38.413807     38.413807     76.827614
     -3.278278     39.473574     39.473574     78.947148
     -3.268268     38.171474     38.171474     76.342948
     -3.258258     34.576943     34.576943     69.153886
     -3.248248     29.233717     29.233717     58.467435
     -3.238238     23.005186     23.005186     46.010373
     -3.228228     16.815555     16.815555     33.631111
     -3.218218     11.400614     11.400614     22.801227
     -3.208208      7.166503      7.166503     14.333007
     -3.198198      4.188806      4.188806      8.377613
     -3.188188      2.315928      2.315928      4.631855
     -3.178178      1.309177      1.309177      2.618354
     -3.168168      0.962250      0.962250      1.924501
     -3.158158      1.173166      1.173166      2.346332
     -3.148148      1.966890      1.966890      3.933780
     -3.138138      3.476168      3.476168      6.952336
     -3.128128      5.886771      5.886771     11.773542
     -3.118118      9.353594      9.353594     18.707189
     -3.108108     13.903221     13.903221     27.806442
     -3.098098     19.353343     19.353343     38.706686
     -3.088088     25.287109     25.287109     50.574218
     -3.078078     31.108191     31.108191     62.216382
     -3.068068     36.168759     36.168759     72.337519
     -3.058058     39.923899     39.923899     79.847798
     -3.048048     42.048277     42.048277     84.096555
     -3.038038     42.470837     42.470837     84.941674
     -3.028028     41.331467     41.331467     82.662933
     -3.018018     38.906952     38.906952     77.813904
     -3.008008     35.559631     35.559631     71.119262
     -2.997998     31.727230     31.727230     63.454461
     -2.987988     27.926218     27.926218     55.852436
     -2.977978     24.722857     24.722857     49.445715
     -2.967968     22.650518     22.650518     45.301037
     -2.957958     22.096632     22.096632     44.193263
     -2.947948     23.209843     23.209843     46.419686
     -2.937938     25.866919     25.866919     51.733838
     -2.927928     29.702889     29.702889     59.405779
     -2.917918     34.179045     34.179045     68.358090
     -2.907908     38.662871     38.662871     77.325742
     -2.897898     42.513994     42.513994     85.027989
     -2.887888     45.183923     45.183923     90.367846
     -2.877878     46.325905     46.325905     92.651810
     -2.867868     45.883034     45.883034     91.766068
     -2.857858     44.106134     44.106134     88.212268
     -2.847848     41.470934     41.470934     82.941868
     -2.837838     38.512340     38.512340     77.024681
     -2.827828     35.642631     35.642631     71.285262
     -2.817818     33.036495     33.036495     66.072990
     -2.807808     30.635412     30.635412     61.270823
     -2.797798     28.262477     28.262477     56.524953
     -2.787788     25.781050     25.781050     51.562100
     -2.777778     23.209471     23.209471     46.418942
     -2.767768     20.731771     20.731771     41.463543
     -2.757758     18.605440     18.605440     37.210881
     -2.747748     17.027073     17.027073     34.054145
     -2.737738     16.040236     16.040236     32.080471
     -2.727728     15.542305     15.542305     31.084610
     -2.717718     15.383774     15.383774     30.767548
     -2.707708     15.493083     15.493083     30.986167
     -2.697698     15.941168     15.941168     31.882336
     -2.687688     16.896932     16.896932     33.793865
     -2.677678     18.496210     18.496210     36.992421
     -2.667668     20.707034     20.707034     41.414067
     -2.657658     23.282386     23.282386     46.564771
     -2.647648     25.839500     25.839500     51.679000
     -2.637638     28.023865     28.023865     56.047729
     -2.627628     29.660044     29.660044     59.320089
     -2.617618     30.799701     30.799701     61.599402
     -2.607608     31.645373     31.645373     63.290746
     -2.597598     32.408237     32.408237     64.816475
     -2.587588     33.191645     33.191645     66.383290
     -2.577578     33.958457     33.958457     67.916913
     -2.567568     34.571851     34.571851     69.143702
     -2.557558     34.854877     34.854877     69.709754
     -2.547548     34.626349     34.626349     69.252699
     -2.537538     33.718826     33.718826     67.437652
     -2.527528     32.015868     32.015868     64.031735
     -2.517518     29.527575     29.527575     59.055151
     -2.507508     26.472684     26.472684     52.945367
     -2.497497     23.301779     23.301779     46.603558
     -2.487487     20.614492     20.614492     41.228984
     -2.477477     18.984076     18.984076     37.968152
     -2.467467     18.762651     18.762651     37.525302
     -2.457457     19.959439     19.959439     39.918879
     -2.447447     22.252347     22.252347     44.504693
     -2.437437     25.129933     25.129933     50.259865
     -2.427427     28.098966     28.098966     56.197932
     -2.417417     30.861237     30.861237     61.722474
     -2.407407     33.376716     33.376716     66.753431
     -2.397397     35.783747     35.783747     71.567494
     -2.387387     38.217137     38.217137     76.434275
     -2.377377     40.618254     40.618254     81.236508
     -2.367367     42.640477     42.640477     85.280953
     -2.357357     43.711497     43.711497     87.422993
     -2.347347     43.238814     43.238814     86.477628
     -2.337337     40.871842     40.871842     81.743685
     -2.327327     36.700798     36.700798     73.401596
     -2.317317     31.298802     31.298802     62.597604
     -2.307307     25.587053     25.587053     51.174106
     -2.297297     20.583232     20.583232     41.166464
     -2.287287     17.136700     17.136700     34.273399
     -2.277277     15.742699     15.742699     31.485398
     -2.267267     16.478723     16.478723     32.957447
     -2.257257     19.053874     19.053874     38.107748
     -2.247247     22.930557     22.930557     45.861114
     -2.237237     27.469849     27.469849     54.939698
     -2.227227     32.057635     32.057635     64.115270
     -2.217217     36.181760     36.181760     72.363521
     -2.207207     39.451408     39.451408     78.902815
     -2.197197     41.576779     41.576779     83.153558
     -2.187187     42.347923     42.347923     84.695845
     -2.177177     41.649180     41.649180     83.298361
     -2.167167     39.514432     39.514432     79.028863
     -2.157157     36.185210     36.185210     72.370421
     -2.147147     32.111666     32.111666     64.223333
     -2.137137     27.859054     27.859054     55.718109
     -2.127127     23.941385     23.941385     47.882770
     -2.117117     20.659203     20.659203     41.318407
     -2.107107     18.027610     18.027610     36.055221
     -2.097097     15.832819     15.832819     31.665638
     -2.087087     13.782002     13.782002     27.564005
     -2.077077     11.661786     11.661786     23.323572
     -2.067067      9.426023      9.426023     18.852046
     -2.057057      7.184114      7.184114     14.368229
     -2.047047      5.118889      5.118889     10.237779
     -2.037037      3.391892      3.391892      6.783785
     -2.027027      2.083871      2.083871      4.167743
     -2.017017      1.186028      1.186028      2.372056
     -2.007007      0.628369      0.628369      1.256739
     -1.996997      0.320324      0.320324      0.640649
     -1.986987      0.184569      0.184569      0.369137
     -1.976977      0.177326      0.177326      0.354653
     -1.966967      0.297480      0.297480      0.594959
     -1.956957      0.588716      0.588716      1.177432
     -1.946947      1.135416      1.135416      2.270832
     -1.936937      2.048528      2.048528      4.097057
     -1.926927      3.436898      3.436898      6.873796
     -1.916917      5.364897      5.364897     10.729795
     -1.906907      7.807057      7.807057     15.614115
     -1.896897     10.618611     10.618611     21.237222
     -1.886887     13.540211     13.540211     27.080421
     -1.876877     16.243170     16.243170     32.486340
     -1.866867     18.404253     18.404253     36.808507
     -1.856857     19.786435     19.786435     39.572870
     -1.846847     20.300280     20.300280     40.600560
     -1.836837     20.027139     20.027139     40.054279
     -1.826827     19.194483     19.194483     38.388965
     -1.816817     18.104241     18.104241     36.208482
     -1.806807     17.030495     17.030495     34.060989
     -1.796797     16.121619     16.121619     32.243238
     -1.786787     15.351425     15.351425     30.702850
     -1.776777     14.549190     14.549190     29.098379
     -1.766767     13.500173     13.500173     27.000347
     -1.756757     12.068426     12.068426     24.136851
     -1.746747     10.280779     10.280779     20.561558
     -1.736737      8.335283      8.335283     16.670565
     -1.726727      6.541261      6.541261     13.082521
     -1.716717      5.230478      5.230478     10.460957
     -1.706707      4.680280      4.680280      9.360561
     -1.696697      5.066275      5.066275     10.132551
     -1.686687      6.437266      6.437266     12.874533
     -1.676677      8.698075      8.698075     17.396150
     -1.666667     11.598083     11.598083     23.196165
     -1.656657     14.740048     14.740048     29.480095
     -1.646647     17.628170     17.628170     35.256340
     -1.636637     19.760538     19.760538     39.521077
     -1.626627     20.747466     20.747466     41.494931
