# EIG2DOS: Utility for SIESTA to obtain the electronic density of states
#  E. Artacho, Apr 1999, A. Garcia, Apr 2012
#  Nick R. Papior, Feb 2017
# ------------------------------------------
# Eigenvalues calculated from a non-polarized calculation
# Eigenvalues read from siesta.EIG
# Kpoint weights read from siesta.KP
# Using smearing parameter:   0.0500
# Using 1000 points in the energy range
# Selected bands: 1 to: 2981
# Emin, Emax in file for selected band(s):    -27.1527157    218.3789140
# Nbands, Nspin, Nk   =   2981     1     1
# E_F                 =    -4.2223 eV --> (shifted to ZERO)
# Broadening          =     0.0500 eV
#
#        E            N(up)  (=)   N(down)         Ntot
     -5.000000     33.714601     33.714601     67.429203
     -4.989990     38.297505     38.297505     76.595011
     -4.979980     42.277806     42.277806     84.555612
     -4.969970     44.981905     44.981905     89.963809
     -4.959960     45.924761     45.924761     91.849523
     -4.949950     44.970017     44.970017     89.940033
     -4.939940     42.380260     42.380260     84.760520
     -4.929930     38.755697     38.755697     77.511395
     -4.919920     34.906499     34.906499     69.812999
     -4.909910     31.710532     31.710532     63.421064
     -4.899900     29.978281     29.978281     59.956562
     -4.889890     30.314227     30.314227     60.628454
     -4.879880     32.964515     32.964515     65.929029
     -4.869870     37.680149     37.680149     75.360298
     -4.859860     43.669507     43.669507     87.339013
     -4.849850     49.715665     49.715665     99.431331
     -4.839840     54.471641     54.471641    108.943282
     -4.829830     56.849092     56.849092    113.698184
     -4.819820     56.346699     56.346699    112.693399
     -4.809810     53.175423     53.175423    106.350847
     -4.799800     48.130324     48.130324     96.260647
     -4.789790     42.278954     42.278954     84.557907
     -4.779780     36.613116     36.613116     73.226231
     -4.769770     31.803969     31.803969     63.607938
     -4.759760     28.125956     28.125956     56.251913
     -4.749750     25.526534     25.526534     51.053068
     -4.739740     23.766119     23.766119     47.532237
     -4.729730     22.551225     22.551225     45.102451
     -4.719720     21.616281     21.616281     43.232561
     -4.709710     20.749378     20.749378     41.498755
     -4.699700     19.786377     19.786377     39.572753
     -4.689690     18.608690     18.608690     37.217379
     -4.679680     17.170741     17.170741     34.341483
     -4.669670     15.557705     15.557705     31.115409
     -4.659660     14.045861     14.045861     28.091722
     -4.649650     13.123379     13.123379     26.246758
     -4.639640     13.436426     13.436426     26.872853
     -4.629630     15.649224     15.649224     31.298447
     -4.619620     20.236856     20.236856     40.473712
     -4.609610     27.260943     27.260943     54.521885
     -4.599600     36.206274     36.206274     72.412547
     -4.589590     45.967274     45.967274     91.934548
     -4.579580     55.044159     55.044159    110.088318
     -4.569570     61.930516     61.930516    123.861032
     -4.559560     65.573560     65.573560    131.147120
     -4.549550     65.723638     65.723638    131.447275
     -4.539540     63.012164     63.012164    126.024328
     -4.529530     58.709283     58.709283    117.418566
     -4.519520     54.258110     54.258110    108.516221
     -4.509510     50.781914     50.781914    101.563828
     -4.499499     48.762024     48.762024     97.524048
     -4.489489     47.993162     47.993162     95.986324
     -4.479479     47.793334     47.793334     95.586669
     -4.469469     47.344184     47.344184     94.688369
     -4.459459     46.007430     46.007430     92.014861
     -4.449449     43.505200     43.505200     87.010400
     -4.439439     39.934005     39.934005     79.868010
     -4.429429     35.658537     35.658537     71.317074
     -4.419419     31.167565     31.167565     62.335129
     -4.409409     26.960067     26.960067     53.920135
     -4.399399     23.483178     23.483178     46.966357
     -4.389389     21.099128     21.099128     42.198255
     -4.379379     20.046258     20.046258     40.092515
     -4.369369     20.384155     20.384155     40.768309
     -4.359359     21.950891     21.950891     43.901781
     -4.349349     24.376941     24.376941     48.753882
     -4.339339     27.178437     27.178437     54.356873
     -4.329329     29.905902     29.905902     59.811803
     -4.319319     32.286701     32.286701     64.573401
     -4.309309     34.296199     34.296199     68.592398
     -4.299299     36.124608     36.124608     72.249216
     -4.289289     38.052072     38.052072     76.104143
     -4.279279     40.279880     40.279880     80.559760
     -4.269269     42.780690     42.780690     85.561380
     -4.259259     45.227840     45.227840     90.455680
     -4.249249     47.045568     47.045568     94.091137
     -4.239239     47.584710     47.584710     95.169419
     -4.229229     46.373994     46.373994     92.747989
     -4.219219     43.346631     43.346631     86.693262
     -4.209209     38.931024     38.931024     77.862048
     -4.199199     33.945330     33.945330     67.890660
     -4.189189     29.329970     29.329970     58.659939
     -4.179179     25.836435     25.836435     51.672869
     -4.169169     23.812550     23.812550     47.625099
     -4.159159     23.171244     23.171244     46.342488
     -4.149149     23.536228     23.536228     47.072455
     -4.139139     24.476886     24.476886     48.953771
     -4.129129     25.713295     25.713295     51.426590
     -4.119119     27.196417     27.196417     54.392834
     -4.109109     29.031530     29.031530     58.063061
     -4.099099     31.289384     31.289384     62.578768
     -4.089089     33.810590     33.810590     67.621179
     -4.079079     36.124294     36.124294     72.248587
     -4.069069     37.553307     37.553307     75.106613
     -4.059059     37.478143     37.478143     74.956286
     -4.049049     35.634419     35.634419     71.268838
     -4.039039     32.285890     32.285890     64.571779
     -4.029029     28.176960     28.176960     56.353921
     -4.019019     24.288239     24.288239     48.576477
     -4.009009     21.520354     21.520354     43.040708
     -3.998999     20.453301     20.453301     40.906602
     -3.988989     21.266672     21.266672     42.533345
     -3.978979     23.809888     23.809888     47.619775
     -3.968969     27.743809     27.743809     55.487617
     -3.958959     32.669349     32.669349     65.338698
     -3.948949     38.202360     38.202360     76.404720
     -3.938939     44.004925     44.004925     88.009850
     -3.928929     49.802836     49.802836     99.605673
     -3.918919     55.400611     55.400611    110.801222
     -3.908909     60.675461     60.675461    121.350923
     -3.898899     65.525265     65.525265    131.050529
     -3.888889     69.774783     69.774783    139.549565
     -3.878879     73.087449     73.087449    146.174898
     -3.868869     74.949907     74.949907    149.899815
     -3.858859     74.771481     74.771481    149.542962
     -3.848849     72.081577     72.081577    144.163154
     -3.838839     66.749437     66.749437    133.498874
     -3.828829     59.127700     59.127700    118.255401
     -3.818819     50.047493     50.047493    100.094987
     -3.808809     40.654219     40.654219     81.308437
     -3.798799     32.138112     32.138112     64.276224
     -3.788789     25.451454     25.451454     50.902907
     -3.778779     21.101746     21.101746     42.203493
     -3.768769     19.075343     19.075343     38.150686
     -3.758759     18.899589     18.899589     37.799178
     -3.748749     19.813091     19.813091     39.626183
     -3.738739     20.992230     20.992230     41.984460
     -3.728729     21.776486     21.776486     43.552972
     -3.718719     21.840293     21.840293     43.680586
     -3.708709     21.270986     21.270986     42.541972
     -3.698699     20.530337     20.530337     41.060674
     -3.688689     20.301923     20.301923     40.603846
     -3.678679     21.257617     21.257617     42.515234
     -3.668669     23.807765     23.807765     47.615530
     -3.658659     27.918272     27.918272     55.836544
     -3.648649     33.068144     33.068144     66.136288
     -3.638639     38.375723     38.375723     76.751447
     -3.628629     42.853606     42.853606     85.707213
     -3.618619     45.694270     45.694270     91.388539
     -3.608609     46.476053     46.476053     92.952106
     -3.598599     45.222740     45.222740     90.445479
     -3.588589     42.322498     42.322498     84.644997
     -3.578579     38.367469     38.367469     76.734939
     -3.568569     33.984782     33.984782     67.969565
     -3.558559     29.702613     29.702613     59.405226
     -3.548549     25.864323     25.864323     51.728646
     -3.538539     22.593165     22.593165     45.186330
     -3.528529     19.813463     19.813463     39.626926
     -3.518519     17.329593     17.329593     34.659187
     -3.508509     14.942205     14.942205     29.884411
     -3.498498     12.557156     12.557156     25.114312
     -3.488488     10.240302     10.240302     20.480605
     -3.478478      8.197112      8.197112     16.394224
     -3.468468      6.692587      6.692587     13.385174
     -3.458458      5.949691      5.949691     11.899382
     -3.448448      6.063862      6.063862     12.127725
     -3.438438      6.957166      6.957166     13.914332
     -3.428428      8.382970      8.382970     16.765941
     -3.418418      9.984395      9.984395     19.968790
     -3.408408     11.399293     11.399293     22.798586
     -3.398398     12.385678     12.385678     24.771357
     -3.388388     12.922638     12.922638     25.845276
     -3.378378     13.240319     13.240319     26.480637
     -3.368368     13.757775     13.757775     27.515551
     -3.358358     14.948042     14.948042     29.896083
     -3.348348     17.180218     17.180218     34.360436
     -3.338338     20.590228     20.590228     41.180456
     -3.328328     25.009764     25.009764     50.019529
     -3.318318     29.959805     29.959805     59.919610
     -3.308308     34.709101     34.709101     69.418202
     -3.298298     38.403409     38.403409     76.806818
     -3.288288     40.263675     40.263675     80.527349
     -3.278278     39.816379     39.816379     79.632757
     -3.268268     37.075318     37.075318     74.150636
     -3.258258     32.582691     32.582691     65.165383
     -3.248248     27.264710     27.264710     54.529420
     -3.238238     22.143934     22.143934     44.287869
     -3.228228     18.023508     18.023508     36.047016
     -3.218218     15.271492     15.271492     30.542983
     -3.208208     13.782327     13.782327     27.564653
     -3.198198     13.111467     13.111467     26.222934
     -3.188188     12.711875     12.711875     25.423750
     -3.178178     12.173756     12.173756     24.347512
     -3.168168     11.383893     11.383893     22.767785
     -3.158158     10.563461     10.563461     21.126922
     -3.148148     10.190603     10.190603     20.381206
     -3.138138     10.845971     10.845971     21.691942
     -3.128128     13.027830     13.027830     26.055660
     -3.118118     16.976688     16.976688     33.953375
     -3.108108     22.544258     22.544258     45.088517
     -3.098098     29.144801     29.144801     58.289602
     -3.088088     35.826292     35.826292     71.652585
     -3.078078     41.473707     41.473707     82.947415
     -3.068068     45.101764     45.101764     90.203528
     -3.058058     46.135955     46.135955     92.271910
     -3.048048     44.563005     44.563005     89.126009
     -3.038038     40.882088     40.882088     81.764176
     -3.028028     35.886121     35.886121     71.772242
     -3.018018     30.388028     30.388028     60.776056
     -3.008008     25.023378     25.023378     50.046757
     -2.997998     20.199802     20.199802     40.399604
     -2.987988     16.171092     16.171092     32.342183
     -2.977978     13.152060     13.152060     26.304120
     -2.967968     11.389712     11.389712     22.779423
     -2.957958     11.151181     11.151181     22.302362
     -2.947948     12.640262     12.640262     25.280523
     -2.937938     15.884782     15.884782     31.769564
     -2.927928     20.643968     20.643968     41.287936
     -2.917918     26.378076     26.378076     52.756153
     -2.907908     32.307412     32.307412     64.614824
     -2.897898     37.562163     37.562163     75.124326
     -2.887888     41.388917     41.388917     82.777834
     -2.877878     43.346655     43.346655     86.693310
     -2.867868     43.414725     43.414725     86.829451
     -2.857858     41.961593     41.961593     83.923186
     -2.847848     39.580402     39.580402     79.160805
     -2.837838     36.859265     36.859265     73.718531
     -2.827828     34.187065     34.187065     68.374131
     -2.817818     31.678385     31.678385     63.356769
     -2.807808     29.240135     29.240135     58.480270
     -2.797798     26.729711     26.729711     53.459423
     -2.787788     24.110315     24.110315     48.220630
     -2.777778     21.518082     21.518082     43.036164
     -2.767768     19.211839     19.211839     38.423679
     -2.757758     17.446404     17.446404     34.892809
     -2.747748     16.353157     16.353157     32.706315
     -2.737738     15.902061     15.902061     31.804122
     -2.727728     15.963403     15.963403     31.926806
     -2.717718     16.420414     16.420414     32.840829
     -2.707708     17.249360     17.249360     34.498720
     -2.697698     18.506523     18.506523     37.013046
     -2.687688     20.228845     20.228845     40.457690
     -2.677678     22.321525     22.321525     44.643049
     -2.667668     24.523046     24.523046     49.046092
     -2.657658     26.489384     26.489384     52.978767
     -2.647648     27.955386     27.955386     55.910771
     -2.637638     28.872052     28.872052     57.744103
     -2.627628     29.428470     29.428470     58.856940
     -2.617618     29.941626     29.941626     59.883252
     -2.607608     30.682538     30.682538     61.365075
     -2.597598     31.741664     31.741664     63.483328
     -2.587588     32.998830     32.998830     65.997659
     -2.577578     34.187959     34.187959     68.375918
     -2.567568     34.994960     34.994960     69.989920
     -2.557558     35.133001     35.133001     70.266002
     -2.547548     34.385682     34.385682     68.771364
     -2.537538     32.645792     32.645792     65.291584
     -2.527528     29.971144     29.971144     59.942287
     -2.517518     26.639528     26.639528     53.279057
     -2.507508     23.153755     23.153755     46.307509
     -2.497497     20.157649     20.157649     40.315298
     -2.487487     18.270893     18.270893     36.541787
     -2.477477     17.901158     17.901158     35.802316
     -2.467467     19.112816     19.112816     38.225632
     -2.457457     21.611623     21.611623     43.223247
     -2.447447     24.856461     24.856461     49.712923
     -2.437437     28.255356     28.255356     56.510712
     -2.427427     31.365655     31.365655     62.731311
     -2.417417     34.013184     34.013184     68.026368
     -2.407407     36.277169     36.277169     72.554338
     -2.397397     38.346748     38.346748     76.693496
     -2.387387     40.317051     40.317051     80.634102
     -2.377377     42.028948     42.028948     84.057896
     -2.367367     43.044847     43.044847     86.089694
     -2.357357     42.791720     42.791720     85.583439
     -2.347347     40.816717     40.816717     81.633433
     -2.337337     37.035417     37.035417     74.070833
     -2.327327     31.848959     31.848959     63.697917
     -2.317317     26.071266     26.071266     52.142531
     -2.307307     20.703449     20.703449     41.406897
     -2.297297     16.660681     16.660681     33.321363
     -2.287287     14.560589     14.560589     29.121178
     -2.277277     14.631194     14.631194     29.262388
     -2.267267     16.732738     16.732738     33.465477
     -2.257257     20.449131     20.449131     40.898263
     -2.247247     25.200885     25.200885     50.401771
     -2.237237     30.347610     30.347610     60.695219
     -2.227227     35.266233     35.266233     70.532465
     -2.217217     39.403479     39.403479     78.806958
     -2.207207     42.309459     42.309459     84.618918
     -2.197197     43.665193     43.665193     87.330386
     -2.187187     43.316585     43.316585     86.633169
     -2.177177     41.315354     41.315354     82.630708
     -2.167167     37.946286     37.946286     75.892572
     -2.157157     33.705114     33.705114     67.410227
     -2.147147     29.201376     29.201376     58.402753
     -2.137137     24.999646     24.999646     49.999293
     -2.127127     21.458734     21.458734     42.917468
     -2.117117     18.646057     18.646057     37.292114
     -2.107107     16.373032     16.373032     32.746065
     -2.097097     14.332759     14.332759     28.665517
     -2.087087     12.265958     12.265958     24.531916
     -2.077077     10.072058     10.072058     20.144117
     -2.067067      7.822305      7.822305     15.644609
     -2.057057      5.690306      5.690306     11.380613
     -2.047047      3.853790      3.853790      7.707579
     -2.037037      2.421264      2.421264      4.842527
     -2.027027      1.408845      1.408845      2.817690
     -2.017017      0.760273      0.760273      1.520546
     -2.007007      0.386307      0.386307      0.772614
     -1.996997      0.201493      0.201493      0.402985
     -1.986987      0.148070      0.148070      0.296140
     -1.976977      0.207798      0.207798      0.415596
     -1.966967      0.406942      0.406942      0.813884
     -1.956957      0.817721      0.817721      1.635443
     -1.946947      1.554666      1.554666      3.109333
     -1.936937      2.760757      2.760757      5.521513
     -1.926927      4.579016      4.579016      9.158032
     -1.916917      7.110853      7.110853     14.221706
     -1.906907     10.369983     10.369983     20.739966
     -1.896897     14.245397     14.245397     28.490793
     -1.886887     18.485777     18.485777     36.971554
     -1.876877     22.713089     22.713089     45.426178
     -1.866867     26.469094     26.469094     52.938189
     -1.856857     29.295305     29.295305     58.590610
     -1.846847     30.838009     30.838009     61.676018
     -1.836837     30.951572     30.951572     61.903144
     -1.826827     29.755033     29.755033     59.510067
     -1.816817     27.600494     27.600494     55.200989
     -1.806807     24.949240     24.949240     49.898480
     -1.796797     22.206109     22.206109     44.412218
     -1.786787     19.594797     19.594797     39.189594
     -1.776777     17.136790     17.136790     34.273581
     -1.766767     14.734128     14.734128     29.468257
     -1.756757     12.295322     12.295322     24.590644
     -1.746747      9.827064      9.827064     19.654128
     -1.736737      7.448709      7.448709     14.897419
     -1.726727      5.341127      5.341127     10.682253
     -1.716717      3.676560      3.676560      7.353120
     -1.706707      2.573319      2.573319      5.146638
     -1.696697      2.089551      2.089551      4.179102
     -1.686687      2.239704      2.239704      4.479407
     -1.676677      3.005258      3.005258      6.010516
     -1.666667      4.321783      4.321783      8.643566
     -1.656657      6.047831      6.047831     12.095663
     -1.646647      7.942291      7.942291     15.884583
     -1.636637      9.681639      9.681639     19.363278
     -1.626627     10.931601     10.931601     21.863202
