# EIG2DOS: Utility for SIESTA to obtain the electronic density of states
#  E. Artacho, Apr 1999, A. Garcia, Apr 2012
#  Nick R. Papior, Feb 2017
# ------------------------------------------
# Eigenvalues calculated from a non-polarized calculation
# Eigenvalues read from siesta.EIG
# Kpoint weights read from siesta.KP
# Using smearing parameter:   0.0500
# Using 1000 points in the energy range
# Selected bands: 1 to: 2981
# Emin, Emax in file for selected band(s):    -27.0553020    218.3046590
# Nbands, Nspin, Nk   =   2981     1     1
# E_F                 =    -4.3112 eV --> (shifted to ZERO)
# Broadening          =     0.0500 eV
#
#        E            N(up)  (=)   N(down)         Ntot
     -5.000000     46.226131     46.226131     92.452262
     -4.989990     48.655430     48.655430     97.310860
     -4.979980     49.581408     49.581408     99.162815
     -4.969970     49.067283     49.067283     98.134567
     -4.959960     47.329302     47.329302     94.658605
     -4.949950     44.664740     44.664740     89.329479
     -4.939940     41.403863     41.403863     82.807727
     -4.929930     37.904074     37.904074     75.808148
     -4.919920     34.576951     34.576951     69.153902
     -4.909910     31.917116     31.917116     63.834232
     -4.899900     30.491593     30.491593     60.983187
     -4.889890     30.853011     30.853011     61.706022
     -4.879880     33.366785     33.366785     66.733570
     -4.869870     37.994375     37.994375     75.988750
     -4.859860     44.132208     44.132208     88.264416
     -4.849850     50.625466     50.625466    101.250931
     -4.839840     56.020133     56.020133    112.040265
     -4.829830     58.995812     58.995812    117.991625
     -4.819820     58.804297     58.804297    117.608594
     -4.809810     55.509497     55.509497    111.018994
     -4.799800     49.916388     49.916388     99.832776
     -4.789790     43.237548     43.237548     86.475095
     -4.779780     36.671749     36.671749     73.343497
     -4.769770     31.083425     31.083425     62.166849
     -4.759760     26.881508     26.881508     53.763015
     -4.749750     24.076752     24.076752     48.153505
     -4.739740     22.426183     22.426183     44.852365
     -4.729730     21.575782     21.575782     43.151565
     -4.719720     21.157398     21.157398     42.314796
     -4.709710     20.839065     20.839065     41.678130
     -4.699700     20.348536     20.348536     40.697072
     -4.689690     19.491591     19.491591     38.983182
     -4.679680     18.179442     18.179442     36.358885
     -4.669670     16.467061     16.467061     32.934122
     -4.659660     14.589011     14.589011     29.178022
     -4.649650     12.968508     12.968508     25.937017
     -4.639640     12.176348     12.176348     24.352695
     -4.629630     12.829114     12.829114     25.658228
     -4.619620     15.434520     15.434520     30.869040
     -4.609610     20.211575     20.211575     40.423149
     -4.599600     26.934461     26.934461     53.868921
     -4.589590     34.866341     34.866341     69.732683
     -4.579580     42.845904     42.845904     85.691807
     -4.569570     49.547374     49.547374     99.094748
     -4.559560     53.857661     53.857661    107.715322
     -4.549550     55.238810     55.238810    110.477619
     -4.539540     53.921036     53.921036    107.842072
     -4.529530     50.828622     50.828622    101.657244
     -4.519520     47.256122     47.256122     94.512245
     -4.509510     44.424849     44.424849     88.849699
     -4.499499     43.098770     43.098770     86.197541
     -4.489489     43.401859     43.401859     86.803717
     -4.479479     44.881128     44.881128     89.762256
     -4.469469     46.754722     46.754722     93.509444
     -4.459459     48.221522     48.221522     96.443044
     -4.449449     48.708338     48.708338     97.416675
     -4.439439     47.981365     47.981365     95.962730
     -4.429429     46.119309     46.119309     92.238619
     -4.419419     43.402731     43.402731     86.805462
     -4.409409     40.194422     40.194422     80.388844
     -4.399399     36.863996     36.863996     73.727992
     -4.389389     33.762969     33.762969     67.525938
     -4.379379     31.216196     31.216196     62.432392
     -4.369369     29.489696     29.489696     58.979392
     -4.359359     28.726860     28.726860     57.453720
     -4.349349     28.887981     28.887981     57.775962
     -4.339339     29.744802     29.744802     59.489605
     -4.329329     30.955733     30.955733     61.911465
     -4.319319     32.196820     32.196820     64.393641
     -4.309309     33.286504     33.286504     66.573008
     -4.299299     34.244293     34.244293     68.488586
     -4.289289     35.259090     35.259090     70.518180
     -4.279279     36.584052     36.584052     73.168103
     -4.269269     38.398732     38.398732     76.797464
     -4.259259     40.684368     40.684368     81.368736
     -4.249249     43.156125     43.156125     86.312249
     -4.239239     45.290336     45.290336     90.580672
     -4.229229     46.463200     46.463200     92.926399
     -4.219219     46.170528     46.170528     92.341056
     -4.209209     44.242744     44.242744     88.485487
     -4.199199     40.946838     40.946838     81.893675
     -4.189189     36.909280     36.909280     73.818560
     -4.179179     32.887005     32.887005     65.774011
     -4.169169     29.499178     29.499178     58.998356
     -4.159159     27.051859     27.051859     54.103717
     -4.149149     25.529308     25.529308     51.058616
     -4.139139     24.731399     24.731399     49.462799
     -4.129129     24.465146     24.465146     48.930292
     -4.119119     24.682776     24.682776     49.365552
     -4.109109     25.495242     25.495242     50.990483
     -4.099099     27.054844     27.054844     54.109687
     -4.089089     29.368014     29.368014     58.736028
     -4.079079     32.144087     32.144087     64.288174
     -4.069069     34.782793     34.782793     69.565587
     -4.059059     36.540550     36.540550     73.081099
     -4.049049     36.816031     36.816031     73.632062
     -4.039039     35.416079     35.416079     70.832158
     -4.029029     32.660722     32.660722     65.321443
     -4.019019     29.271321     29.271321     58.542643
     -4.009009     26.106709     26.106709     52.213418
     -3.998999     23.889020     23.889020     47.778040
     -3.988989     23.045827     23.045827     46.091653
     -3.978979     23.706593     23.706593     47.413186
     -3.968969     25.797224     25.797224     51.594447
     -3.958959     29.140083     29.140083     58.280166
     -3.948949     33.501770     33.501770     67.003540
     -3.938939     38.596868     38.596868     77.193736
     -3.928929     44.095789     44.095789     88.191579
     -3.918919     49.670668     49.670668     99.341336
     -3.908909     55.063956     55.063956    110.127912
     -3.898899     60.125824     60.125824    120.251647
     -3.888889     64.773151     64.773151    129.546303
     -3.878879     68.873322     68.873322    137.746644
     -3.868869     72.116438     72.116438    144.232876
     -3.858859     73.968068     73.968068    147.936136
     -3.848849     73.767210     73.767210    147.534420
     -3.838839     70.959432     70.959432    141.918864
     -3.828829     65.372411     65.372411    130.744821
     -3.818819     57.400291     57.400291    114.800583
     -3.808809     47.994172     47.994172     95.988345
     -3.798799     38.445200     38.445200     76.890401
     -3.788789     30.043406     30.043406     60.086813
     -3.778779     23.745156     23.745156     47.490312
     -3.768769     19.964016     19.964016     39.928032
     -3.758759     18.535801     18.535801     37.071603
     -3.748749     18.840743     18.840743     37.681486
     -3.738739     20.024612     20.024612     40.049223
     -3.728729     21.250702     21.250702     42.501403
     -3.718719     21.922873     21.922873     43.845746
     -3.708709     21.833015     21.833015     43.666031
     -3.698699     21.200349     21.200349     42.400698
     -3.688689     20.588470     20.588470     41.176940
     -3.678679     20.712969     20.712969     41.425939
     -3.668669     22.186292     22.186292     44.372585
     -3.658659     25.277024     25.277024     50.554048
     -3.648649     29.771012     29.771012     59.542023
     -3.638639     34.996340     34.996340     69.992680
     -3.628629     40.013099     40.013099     80.026198
     -3.618619     43.896516     43.896516     87.793032
     -3.608609     45.998765     45.998765     91.997530
     -3.598599     46.090122     46.090122     92.180244
     -3.588589     44.346291     44.346291     88.692581
     -3.578579     41.222295     41.222295     82.444591
     -3.568569     37.288189     37.288189     74.576378
     -3.558559     33.086530     33.086530     66.173060
     -3.548549     29.034236     29.034236     58.068473
     -3.538539     25.368440     25.368440     50.736880
     -3.528529     22.137231     22.137231     44.274462
     -3.518519     19.241968     19.241968     38.483937
     -3.508509     16.526546     16.526546     33.053091
     -3.498498     13.883419     13.883419     27.766837
     -3.488488     11.330177     11.330177     22.660354
     -3.478478      9.022120      9.022120     18.044241
     -3.468468      7.199223      7.199223     14.398446
     -3.458458      6.095957      6.095957     12.191913
     -3.448448      5.851724      5.851724     11.703448
     -3.438438      6.450341      6.450341     12.900682
     -3.428428      7.703686      7.703686     15.407372
     -3.418418      9.286360      9.286360     18.572719
     -3.408408     10.820520     10.820520     21.641040
     -3.398398     11.994450     11.994450     23.988900
     -3.388388     12.677312     12.677312     25.354625
     -3.378378     12.981638     12.981638     25.963276
     -3.368368     13.239755     13.239755     26.479509
     -3.358358     13.898091     13.898091     27.796182
     -3.348348     15.371495     15.371495     30.742990
     -3.338338     17.912486     17.912486     35.824971
     -3.328328     21.531046     21.531046     43.062092
     -3.318318     25.968445     25.968445     51.936889
     -3.308308     30.712473     30.712473     61.424946
     -3.298298     35.052163     35.052163     70.104325
     -3.288288     38.188039     38.188039     76.376078
     -3.278278     39.407058     39.407058     78.814116
     -3.268268     38.289425     38.289425     76.578850
     -3.258258     34.867070     34.867070     69.734139
     -3.248248     29.647617     29.647617     59.295235
     -3.238238     23.473049     23.473049     46.946099
     -3.228228     17.267492     17.267492     34.534983
     -3.218218     11.784948     11.784948     23.569895
     -3.208208      7.458098      7.458098     14.916195
     -3.198198      4.386377      4.386377      8.772754
     -3.188188      2.432256      2.432256      4.864513
     -3.178178      1.359668      1.359668      2.719335
     -3.168168      0.955916      0.955916      1.911831
     -3.158158      1.107949      1.107949      2.215897
     -3.148148      1.830054      1.830054      3.660107
     -3.138138      3.250450      3.250450      6.500899
     -3.128128      5.562910      5.562910     11.125821
     -3.118118      8.948087      8.948087     17.896173
     -3.108108     13.476142     13.476142     26.952285
     -3.098098     19.016370     19.016370     38.032740
     -3.088088     25.190195     25.190195     50.380390
     -3.078078     31.398823     31.398823     62.797645
     -3.068068     36.931288     36.931288     73.862576
     -3.058058     41.122609     41.122609     82.245218
     -3.048048     43.505814     43.505814     87.011627
     -3.038038     43.903682     43.903682     87.807364
     -3.028028     42.437022     42.437022     84.874043
     -3.018018     39.466728     39.466728     78.933455
     -3.008008     35.510226     35.510226     71.020451
     -2.997998     31.165929     31.165929     62.331858
     -2.987988     27.052831     27.052831     54.105662
     -2.977978     23.751564     23.751564     47.503127
     -2.967968     21.735545     21.735545     43.471090
     -2.957958     21.300787     21.300787     42.601575
     -2.947948     22.518497     22.518497     45.036993
     -2.937938     25.229102     25.229102     50.458204
     -2.927928     29.074797     29.074797     58.149594
     -2.917918     33.551434     33.551434     67.102869
     -2.907908     38.065409     38.065409     76.130818
     -2.897898     42.000132     42.000132     84.000264
     -2.887888     44.806239     44.806239     89.612477
     -2.877878     46.113494     46.113494     92.226989
     -2.867868     45.829962     45.829962     91.659924
     -2.857858     44.174626     44.174626     88.349252
     -2.847848     41.606874     41.606874     83.213748
     -2.837838     38.665996     38.665996     77.331992
     -2.827828     35.785829     35.785829     71.571657
     -2.817818     33.169241     33.169241     66.338481
     -2.807808     30.779588     30.779588     61.559175
     -2.797798     28.446001     28.446001     56.892003
     -2.787788     26.020301     26.020301     52.040603
     -2.777778     23.498476     23.498476     46.996952
     -2.767768     21.042936     21.042936     42.085873
     -2.757758     18.900208     18.900208     37.800417
     -2.747748     17.269509     17.269509     34.539017
     -2.737738     16.205469     16.205469     32.410939
     -2.727728     15.615791     15.615791     31.231583
     -2.717718     15.353962     15.353962     30.707925
     -2.707708     15.345029     15.345029     30.690058
     -2.697698     15.658460     15.658460     31.316920
     -2.687688     16.473710     16.473710     32.947420
     -2.677678     17.953215     17.953215     35.906429
     -2.667668     20.100641     20.100641     40.201281
     -2.657658     22.697436     22.697436     45.394872
     -2.647648     25.365382     25.365382     50.730764
     -2.637638     27.723908     27.723908     55.447815
     -2.627628     29.549651     29.549651     59.099302
     -2.617618     30.844476     30.844476     61.688952
     -2.607608     31.779128     31.779128     63.558257
     -2.597598     32.560043     32.560043     65.120085
     -2.587588     33.308462     33.308462     66.616923
     -2.577578     34.016046     34.016046     68.032092
     -2.567568     34.575327     34.575327     69.150655
     -2.557558     34.834146     34.834146     69.668291
     -2.547548     34.629055     34.629055     69.258110
     -2.537538     33.799204     33.799204     67.598409
     -2.527528     32.217991     32.217991     64.435982
     -2.517518     29.866597     29.866597     59.733193
     -2.507508     26.922707     26.922707     53.845414
     -2.497497     23.798250     23.798250     47.596501
     -2.487487     21.071932     21.071932     42.143863
     -2.477477     19.321567     19.321567     38.643133
     -2.467467     18.925637     18.925637     37.851275
     -2.457457     19.929268     19.929268     39.858536
     -2.447447     22.041943     22.041943     44.083886
     -2.437437     24.770628     24.770628     49.541257
     -2.427427     27.626533     27.626533     55.253067
     -2.417417     30.307984     30.307984     60.615969
     -2.407407     32.772358     32.772358     65.544716
     -2.397397     35.162909     35.162909     70.325817
     -2.387387     37.627888     37.627888     75.255775
     -2.377377     40.125357     40.125357     80.250714
     -2.367367     42.319077     42.319077     84.638154
     -2.357357     43.630958     43.630958     87.261916
     -2.347347     43.441077     43.441077     86.882154
     -2.337337     41.352348     41.352348     82.704696
     -2.327327     37.400810     37.400810     74.801621
     -2.317317     32.114469     32.114469     64.228939
     -2.307307     26.393642     26.393642     52.787284
     -2.297297     21.265972     21.265972     42.531944
     -2.287287     17.616669     17.616669     35.233337
     -2.277277     15.988800     15.988800     31.977601
     -2.267267     16.503424     16.503424     33.006847
     -2.257257     18.897271     18.897271     37.794542
     -2.247247     22.641501     22.641501     45.283002
     -2.237237     27.092829     27.092829     54.185659
     -2.227227     31.630213     31.630213     63.260426
     -2.217217     35.741131     35.741131     71.482262
     -2.207207     39.043106     39.043106     78.086213
     -2.197197     41.256888     41.256888     82.513775
     -2.187187     42.173907     42.173907     84.347813
     -2.177177     41.661870     41.661870     83.323741
     -2.167167     39.720211     39.720211     79.440422
     -2.157157     36.548892     36.548892     73.097784
     -2.147147     32.565655     32.565655     65.131311
     -2.137137     28.325885     28.325885     56.651769
     -2.127127     24.359501     24.359501     48.719002
     -2.117117     21.000141     21.000141     42.000282
     -2.107107     18.297483     18.297483     36.594965
     -2.097097     16.059364     16.059364     32.118728
     -2.087087     13.995470     13.995470     27.990939
     -2.077077     11.879717     11.879717     23.759434
     -2.067067      9.648130      9.648130     19.296261
     -2.057057      7.397038      7.397038     14.794076
     -2.047047      5.305760      5.305760     10.611520
     -2.037037      3.540729      3.540729      7.081459
     -2.027027      2.191324      2.191324      4.382649
     -2.017017      1.256421      1.256421      2.512842
     -2.007007      0.670207      0.670207      1.340413
     -1.996997      0.342659      0.342659      0.685318
     -1.986987      0.194613      0.194613      0.389226
     -1.976977      0.179481      0.179481      0.358962
     -1.966967      0.293304      0.293304      0.586608
     -1.956957      0.577291      0.577291      1.154581
     -1.946947      1.113840      1.113840      2.227680
     -1.936937      2.012570      2.012570      4.025141
     -1.926927      3.381951      3.381951      6.763901
     -1.916917      5.287285      5.287285     10.574570
     -1.906907      7.705559      7.705559     15.411118
     -1.896897     10.495888     10.495888     20.991776
     -1.886887     13.403762     13.403762     26.807524
     -1.876877     16.105418     16.105418     32.210836
     -1.866867     18.281361     18.281361     36.562722
     -1.856857     19.695588     19.695588     39.391175
     -1.846847     20.255645     20.255645     40.511289
     -1.836837     20.035587     20.035587     40.071174
     -1.826827     19.252884     19.252884     38.505768
     -1.816817     18.199990     18.199990     36.399981
     -1.806807     17.145532     17.145532     34.291065
     -1.796797     16.238299     16.238299     32.476598
     -1.786787     15.457474     15.457474     30.914948
     -1.776777     14.639558     14.639558     29.279116
     -1.766767     13.575443     13.575443     27.150886
     -1.756757     12.131272     12.131272     24.262544
     -1.746747     10.332599     10.332599     20.665199
     -1.736737      8.374366      8.374366     16.748731
     -1.726727      6.562623      6.562623     13.125246
     -1.716717      5.226705      5.226705     10.453409
     -1.706707      4.642779      4.642779      9.285558
     -1.696697      4.986907      4.986907      9.973815
     -1.686687      6.310670      6.310670     12.621340
     -1.676677      8.524764      8.524764     17.049528
     -1.666667     11.387625     11.387625     22.775249
     -1.656657     14.512853     14.512853     29.025706
     -1.646647     17.414191     17.414191     34.828381
     -1.636637     19.593906     19.593906     39.187812
     -1.626627     20.657668     20.657668     41.315336
