# EIG2DOS: Utility for SIESTA to obtain the electronic density of states
#  E. Artacho, Apr 1999, A. Garcia, Apr 2012
#  Nick R. Papior, Feb 2017
# ------------------------------------------
# Eigenvalues calculated from a non-polarized calculation
# Eigenvalues read from siesta.EIG
# Kpoint weights read from siesta.KP
# Using smearing parameter:   0.0500
# Using 1000 points in the energy range
# Selected bands: 1 to: 2981
# Emin, Emax in file for selected band(s):    -27.2499588    218.4006980
# Nbands, Nspin, Nk   =   2981     1     1
# E_F                 =    -4.1920 eV --> (shifted to ZERO)
# Broadening          =     0.0500 eV
#
#        E            N(up)  (=)   N(down)         Ntot
     -5.000000     30.721908     30.721908     61.443816
     -4.989990     35.990591     35.990591     71.981182
     -4.979980     41.131259     41.131259     82.262518
     -4.969970     45.254950     45.254950     90.509901
     -4.959960     47.568354     47.568354     95.136707
     -4.949950     47.637545     47.637545     95.275090
     -4.939940     45.538262     45.538262     91.076525
     -4.929930     41.844415     41.844415     83.688830
     -4.919920     37.481620     37.481620     74.963240
     -4.909910     33.515755     33.515755     67.031509
     -4.899900     30.938891     30.938891     61.877783
     -4.889890     30.479588     30.479588     60.959175
     -4.879880     32.443355     32.443355     64.886709
     -4.869870     36.603041     36.603041     73.206082
     -4.859860     42.187397     42.187397     84.374794
     -4.849850     48.017309     48.017309     96.034617
     -4.839840     52.790617     52.790617    105.581233
     -4.829830     55.439317     55.439317    110.878634
     -4.819820     55.428606     55.428606    110.857212
     -4.809810     52.877796     52.877796    105.755592
     -4.799800     48.459093     48.459093     96.918186
     -4.789790     43.129622     43.129622     86.259244
     -4.779780     37.818951     37.818951     75.637903
     -4.769770     33.195498     33.195498     66.390995
     -4.759760     29.578630     29.578630     59.157261
     -4.749750     26.988104     26.988104     53.976209
     -4.739740     25.269548     25.269548     50.539096
     -4.729730     24.222683     24.222683     48.445365
     -4.719720     23.680408     23.680408     47.360817
     -4.709710     23.522767     23.522767     47.045533
     -4.699700     23.643533     23.643533     47.287067
     -4.689690     23.908444     23.908444     47.816889
     -4.679680     24.146540     24.146540     48.293081
     -4.669670     24.197944     24.197944     48.395889
     -4.659660     24.008572     24.008572     48.017143
     -4.649650     23.728597     23.728597     47.457193
     -4.639640     23.753314     23.753314     47.506629
     -4.629630     24.654603     24.654603     49.309206
     -4.619620     26.991961     26.991961     53.983923
     -4.609610     31.053857     31.053857     62.107713
     -4.599600     36.636414     36.636414     73.272827
     -4.589590     42.981368     42.981368     85.962737
     -4.579580     48.944380     48.944380     97.888759
     -4.569570     53.359558     53.359558    106.719116
     -4.559560     55.458304     55.458304    110.916607
     -4.549550     55.155378     55.155378    110.310756
     -4.539540     53.066751     53.066751    106.133502
     -4.529530     50.248338     50.248338    100.496676
     -4.519520     47.774345     47.774345     95.548691
     -4.509510     46.340511     46.340511     92.681023
     -4.499499     46.052823     46.052823     92.105645
     -4.489489     46.467773     46.467773     92.935547
     -4.479479     46.837656     46.837656     93.675312
     -4.469469     46.435834     46.435834     92.871669
     -4.459459     44.822100     44.822100     89.644199
     -4.449449     41.955270     41.955270     83.910539
     -4.439439     38.140721     38.140721     76.281442
     -4.429429     33.873960     33.873960     67.747919
     -4.419419     29.673470     29.673470     59.346941
     -4.409409     25.975349     25.975349     51.950698
     -4.399399     23.106108     23.106108     46.212216
     -4.389389     21.296526     21.296526     42.593053
     -4.379379     20.683569     20.683569     41.367139
     -4.369369     21.276914     21.276914     42.553829
     -4.359359     22.915161     22.915161     45.830322
     -4.349349     25.263812     25.263812     50.527625
     -4.339339     27.889835     27.889835     55.779671
     -4.329329     30.398307     30.398307     60.796614
     -4.319319     32.571376     32.571376     65.142752
     -4.309309     34.439193     34.439193     68.878385
     -4.299299     36.241204     36.241204     72.482407
     -4.289289     38.285049     38.285049     76.570099
     -4.279279     40.755029     40.755029     81.510059
     -4.269269     43.547554     43.547554     87.095109
     -4.259259     46.210971     46.210971     92.421943
     -4.249249     48.037652     48.037652     96.075304
     -4.239239     48.297901     48.297901     96.595801
     -4.229229     46.534840     46.534840     93.069679
     -4.219219     42.792860     42.792860     85.585719
     -4.209209     37.665455     37.665455     75.330911
     -4.199199     32.126425     32.126425     64.252851
     -4.189189     27.212966     27.212966     54.425933
     -4.179179     23.700134     23.700134     47.400268
     -4.169169     21.903551     21.903551     43.807102
     -4.159159     21.677542     21.677542     43.355083
     -4.149149     22.582556     22.582556     45.165113
     -4.139139     24.126777     24.126777     48.253554
     -4.129129     25.967683     25.967683     51.935367
     -4.119119     27.988513     27.988513     55.977026
     -4.109109     30.225199     30.225199     60.450398
     -4.099099     32.689821     32.689821     65.379642
     -4.089089     35.191586     35.191586     70.383172
     -4.079079     37.268180     37.268180     74.536360
     -4.069069     38.291892     38.291892     76.583784
     -4.059059     37.720431     37.720431     75.440862
     -4.049049     35.372296     35.372296     70.744592
     -4.039039     31.580087     31.580087     63.160174
     -4.029029     27.135368     27.135368     54.270736
     -4.019019     23.049859     23.049859     46.099718
     -4.009009     20.249276     20.249276     40.498552
     -3.998999     19.334578     19.334578     38.669157
     -3.988989     20.490363     20.490363     40.980726
     -3.978979     23.536679     23.536679     47.073357
     -3.968969     28.061372     28.061372     56.122745
     -3.958959     33.560907     33.560907     67.121814
     -3.948949     39.547380     39.547380     79.094761
     -3.938939     45.616074     45.616074     91.232148
     -3.928929     51.483389     51.483389    102.966777
     -3.918919     56.995514     56.995514    113.991028
     -3.908909     62.093777     62.093777    124.187555
     -3.898899     66.728341     66.728341    133.456681
     -3.888889     70.743055     70.743055    141.486109
     -3.878879     73.789067     73.789067    147.578133
     -3.868869     75.331308     75.331308    150.662616
     -3.858859     74.775900     74.775900    149.551800
     -3.848849     71.684381     71.684381    143.368762
     -3.838839     65.988907     65.988907    131.977813
     -3.828829     58.112310     58.112310    116.224620
     -3.818819     48.934030     48.934030     97.868060
     -3.808809     39.606690     39.606690     79.213380
     -3.798799     31.285970     31.285970     62.571941
     -3.788789     24.863304     24.863304     49.726608
     -3.778779     20.780837     20.780837     41.561675
     -3.768769     18.972994     18.972994     37.945989
     -3.758759     18.937630     18.937630     37.875261
     -3.748749     19.906985     19.906985     39.813970
     -3.738739     21.069955     21.069955     42.139910
     -3.728729     21.791374     21.791374     43.582748
     -3.718719     21.777526     21.777526     43.555053
     -3.708709     21.147855     21.147855     42.295710
     -3.698699     20.390465     20.390465     40.780930
     -3.688689     20.204026     20.204026     40.408051
     -3.678679     21.260102     21.260102     42.520205
     -3.668669     23.951609     23.951609     47.903218
     -3.658659     28.212015     28.212015     56.424030
     -3.648649     33.479851     33.479851     66.959702
     -3.638639     38.836115     38.836115     77.672230
     -3.628629     43.271481     43.271481     86.542962
     -3.618619     45.980472     45.980472     91.960944
     -3.608609     46.568062     46.568062     93.136123
     -3.598599     45.101019     45.101019     90.202037
     -3.588589     42.013004     42.013004     84.026008
     -3.578579     37.930416     37.930416     75.860832
     -3.568569     33.495000     33.495000     66.990001
     -3.558559     29.229172     29.229172     58.458344
     -3.548549     25.456000     25.456000     50.912001
     -3.538539     22.272949     22.272949     44.545897
     -3.528529     19.581416     19.581416     39.162832
     -3.518519     17.170708     17.170708     34.341415
     -3.508509     14.835108     14.835108     29.670215
     -3.498498     12.480568     12.480568     24.961136
     -3.488488     10.176138     10.176138     20.352277
     -3.478478      8.131032      8.131032     16.262065
     -3.468468      6.613900      6.613900     13.227800
     -3.458458      5.852510      5.852510     11.705020
     -3.448448      5.950570      5.950570     11.901140
     -3.438438      6.844191      6.844191     13.688383
     -3.428428      8.308415      8.308415     16.616830
     -3.418418     10.017522     10.017522     20.035044
     -3.408408     11.652685     11.652685     23.305370
     -3.398398     13.030151     13.030151     26.060302
     -3.388388     14.200942     14.200942     28.401884
     -3.378378     15.468691     15.468691     30.937381
     -3.368368     17.299055     17.299055     34.598110
     -3.358358     20.143426     20.143426     40.286852
     -3.348348     24.243247     24.243247     48.486494
     -3.338338     29.491835     29.491835     58.983670
     -3.328328     35.402805     35.402805     70.805609
     -3.318318     41.188712     41.188712     82.377424
     -3.308308     45.919320     45.919320     91.838640
     -3.298298     48.718832     48.718832     97.437664
     -3.288288     48.964646     48.964646     97.929291
     -3.278278     46.448450     46.448450     92.896900
     -3.268268     41.452896     41.452896     82.905792
     -3.258258     34.703649     34.703649     69.407297
     -3.248248     27.194445     27.194445     54.388890
     -3.238238     19.939786     19.939786     39.879573
     -3.228228     13.748148     13.748148     27.496295
     -3.218218      9.097012      9.097012     18.194024
     -3.208208      6.134852      6.134852     12.269704
     -3.198198      4.772388      4.772388      9.544777
     -3.188188      4.795460      4.795460      9.590920
     -3.178178      5.946733      5.946733     11.893467
     -3.168168      7.964026      7.964026     15.928052
     -3.158158     10.596881     10.596881     21.193763
     -3.148148     13.627827     13.627827     27.255655
     -3.138138     16.901654     16.901654     33.803309
     -3.128128     20.337896     20.337896     40.675791
     -3.118118     23.896617     23.896617     47.793234
     -3.108108     27.496623     27.496623     54.993245
     -3.098098     30.929542     30.929542     61.859083
     -3.088088     33.835520     33.835520     67.671040
     -3.078078     35.780199     35.780199     71.560397
     -3.068068     36.408845     36.408845     72.817690
     -3.058058     35.595967     35.595967     71.191935
     -3.048048     33.502332     33.502332     67.004664
     -3.038038     30.505197     30.505197     61.010393
     -3.028028     27.045816     27.045816     54.091632
     -3.018018     23.486270     23.486270     46.972540
     -3.008008     20.053445     20.053445     40.106890
     -2.997998     16.885466     16.885466     33.770933
     -2.987988     14.131343     14.131343     28.262687
     -2.977978     12.029758     12.029758     24.059515
     -2.967968     10.915617     10.915617     21.831233
     -2.957958     11.148462     11.148462     22.296924
     -2.947948     12.993658     12.993658     25.987315
     -2.937938     16.501331     16.501331     33.002661
     -2.927928     21.424932     21.424932     42.849865
     -2.917918     27.211332     27.211332     54.422663
     -2.907908     33.079762     33.079762     66.159524
     -2.897898     38.183271     38.183271     76.366542
     -2.887888     41.814126     41.814126     83.628252
     -2.877878     43.586412     43.586412     87.172824
     -2.867868     43.523963     43.523963     87.047926
     -2.857858     42.011396     42.011396     84.022792
     -2.847848     39.622927     39.622927     79.245855
     -2.837838     36.901210     36.901210     73.802421
     -2.827828     34.184404     34.184404     68.368809
     -2.817818     31.555948     31.555948     63.111897
     -2.807808     28.927789     28.927789     57.855578
     -2.797798     26.198384     26.198384     52.396767
     -2.787788     23.390949     23.390949     46.781897
     -2.777778     20.695352     20.695352     41.390705
     -2.767768     18.397425     18.397425     36.794850
     -2.757758     16.746365     16.746365     33.492730
     -2.747748     15.845062     15.845062     31.690123
     -2.737738     15.629644     15.629644     31.259287
     -2.727728     15.944938     15.944938     31.889876
     -2.717718     16.658887     16.658887     33.317775
     -2.707708     17.733081     17.733081     35.466162
     -2.697698     19.197788     19.197788     38.395576
     -2.687688     21.049866     21.049866     42.099732
     -2.677678     23.152841     23.152841     46.305681
     -2.667668     25.224632     25.224632     50.449264
     -2.657658     26.940531     26.940531     53.881063
     -2.647648     28.095393     28.095393     56.190785
     -2.637638     28.720280     28.720280     57.440561
     -2.627628     29.073048     29.073048     58.146095
     -2.617618     29.503796     29.503796     59.007591
     -2.607608     30.275793     30.275793     60.551586
     -2.597598     31.443311     31.443311     62.886621
     -2.587588     32.839803     32.839803     65.679607
     -2.577578     34.155425     34.155425     68.310849
     -2.567568     35.039899     35.039899     70.079798
     -2.557558     35.180547     35.180547     70.361094
     -2.547548     34.351127     34.351127     68.702254
     -2.537538     32.457524     32.457524     64.915048
     -2.527528     29.594750     29.594750     59.189500
     -2.517518     26.092444     26.092444     52.184889
     -2.507508     22.502726     22.502726     45.005451
     -2.497497     19.500347     19.500347     39.000693
     -2.487487     17.711204     17.711204     35.422409
     -2.477477     17.529019     17.529019     35.058038
     -2.467467     18.994005     18.994005     37.988011
     -2.457457     21.785798     21.785798     43.571596
     -2.447447     25.338163     25.338163     50.676325
     -2.437437     29.033984     29.033984     58.067969
     -2.427427     32.403817     32.403817     64.807633
     -2.417417     35.244865     35.244865     70.489730
     -2.407407     37.607027     37.607027     75.214053
     -2.397397     39.651378     39.651378     79.302756
     -2.387387     41.450538     41.450538     82.901076
     -2.377377     42.837287     42.837287     85.674574
     -2.367367     43.393019     43.393019     86.786039
     -2.357357     42.600471     42.600471     85.200942
     -2.347347     40.096343     40.096343     80.192686
     -2.337337     35.898923     35.898923     71.797846
     -2.327327     30.493112     30.493112     60.986223
     -2.317317     24.729216     24.729216     49.458432
     -2.307307     19.587038     19.587038     39.174076
     -2.297297     15.914642     15.914642     31.829283
     -2.287287     14.242975     14.242975     28.485951
     -2.277277     14.721071     14.721071     29.442141
     -2.267267     17.155660     17.155660     34.311319
     -2.257257     21.107237     21.107237     42.214475
     -2.247247     25.996432     25.996432     51.992864
     -2.237237     31.193781     31.193781     62.387563
     -2.227227     36.085317     36.085317     72.170633
     -2.217217     40.118472     40.118472     80.236945
     -2.207207     42.838739     42.838739     85.677477
     -2.197197     43.928501     43.928501     87.857001
     -2.187187     43.253863     43.253863     86.507727
     -2.177177     40.910901     40.910901     81.821801
     -2.167167     37.244725     37.244725     74.489450
     -2.157157     32.807361     32.807361     65.614721
     -2.147147     28.238271     28.238271     56.476542
     -2.137137     24.093235     24.093235     48.186470
     -2.127127     20.688575     20.688575     41.377151
     -2.117117     18.035438     18.035438     36.070876
     -2.107107     15.899071     15.899071     31.798142
     -2.097097     13.952156     13.952156     27.904311
     -2.087087     11.942328     11.942328     23.884657
     -2.077077      9.794109      9.794109     19.588218
     -2.067067      7.611273      7.611273     15.222545
     -2.057057      5.603378      5.603378     11.206757
     -2.047047      3.992436      3.992436      7.984872
     -2.037037      2.948175      2.948175      5.896350
     -2.027027      2.566957      2.566957      5.133913
     -2.017017      2.877195      2.877195      5.754389
     -2.007007      3.843526      3.843526      7.687053
     -1.996997      5.355671      5.355671     10.711343
     -1.986987      7.212896      7.212896     14.425792
     -1.976977      9.132025      9.132025     18.264049
     -1.966967     10.801729     10.801729     21.603458
     -1.956957     11.978254     11.978254     23.956508
     -1.946947     12.583998     12.583998     25.167995
     -1.936937     12.754643     12.754643     25.509285
     -1.926927     12.798122     12.798122     25.596244
     -1.916917     13.073013     13.073013     26.146025
     -1.906907     13.838509     13.838509     27.677018
     -1.896897     15.144775     15.144775     30.289549
     -1.886887     16.811263     16.811263     33.622527
     -1.876877     18.496478     18.496478     36.992955
     -1.866867     19.822793     19.822793     39.645585
     -1.856857     20.504186     20.504186     41.008372
     -1.846847     20.433449     20.433449     40.866898
     -1.836837     19.705463     19.705463     39.410927
     -1.826827     18.572585     18.572585     37.145171
     -1.816817     17.345592     17.345592     34.691184
     -1.806807     16.272163     16.272163     32.544325
     -1.796797     15.440102     15.440102     30.880203
     -1.786787     14.750667     14.750667     29.501334
     -1.776777     13.979112     13.979112     27.958224
     -1.766767     12.894901     12.894901     25.789802
     -1.756757     11.380642     11.380642     22.761284
     -1.746747      9.490747      9.490747     18.981494
     -1.736737      7.427967      7.427967     14.855934
     -1.726727      5.462620      5.462620     10.925240
     -1.716717      3.844839      3.844839      7.689679
     -1.706707      2.751518      2.751518      5.503036
     -1.696697      2.278399      2.278399      4.556798
     -1.686687      2.457664      2.457664      4.915329
     -1.676677      3.270820      3.270820      6.541640
     -1.666667      4.638936      4.638936      9.277872
     -1.656657      6.397065      6.397065     12.794130
     -1.646647      8.280460      8.280460     16.560920
     -1.636637      9.952805      9.952805     19.905610
     -1.626627     11.086984     11.086984     22.173967
