# EIG2DOS: Utility for SIESTA to obtain the electronic density of states
#  E. Artacho, Apr 1999, A. Garcia, Apr 2012
#  Nick R. Papior, Feb 2017
# ------------------------------------------
# Eigenvalues calculated from a non-polarized calculation
# Eigenvalues read from siesta.EIG
# Kpoint weights read from siesta.KP
# Using smearing parameter:   0.0500
# Using 1000 points in the energy range
# Selected bands: 1 to: 2981
# Emin, Emax in file for selected band(s):    -27.2594386    218.4027350
# Nbands, Nspin, Nk   =   2981     1     1
# E_F                 =    -4.1881 eV --> (shifted to ZERO)
# Broadening          =     0.0500 eV
#
#        E            N(up)  (=)   N(down)         Ntot
     -5.000000     32.614369     32.614369     65.228737
     -4.989990     37.970120     37.970120     75.940241
     -4.979980     42.867500     42.867500     85.735000
     -4.969970     46.410813     46.410813     92.821626
     -4.959960     47.911875     47.911875     95.823750
     -4.949950     47.123845     47.123845     94.247689
     -4.939940     44.325941     44.325941     88.651883
     -4.929930     40.244072     40.244072     80.488144
     -4.919920     35.865038     35.865038     71.730076
     -4.909910     32.223928     32.223928     64.447855
     -4.899900     30.214200     30.214200     60.428399
     -4.889890     30.427545     30.427545     60.855090
     -4.879880     33.019216     33.019216     66.038432
     -4.869870     37.621856     37.621856     75.243713
     -4.859860     43.362311     43.362311     86.724623
     -4.849850     49.027626     49.027626     98.055251
     -4.839840     53.366626     53.366626    106.733251
     -4.829830     55.436084     55.436084    110.872167
     -4.819820     54.859376     54.859376    109.718752
     -4.809810     51.893501     51.893501    103.787003
     -4.799800     47.284825     47.284825     94.569649
     -4.789790     41.987017     41.987017     83.974034
     -4.779780     36.865667     36.865667     73.731334
     -4.769770     32.500793     32.500793     65.001586
     -4.759760     29.136779     29.136779     58.273557
     -4.749750     26.757793     26.757793     53.515586
     -4.739740     25.220726     25.220726     50.441451
     -4.729730     24.370897     24.370897     48.741795
     -4.719720     24.091494     24.091494     48.182987
     -4.709710     24.279763     24.279763     48.559525
     -4.699700     24.784605     24.784605     49.569209
     -4.689690     25.364577     25.364577     50.729155
     -4.679680     25.718483     25.718483     51.436967
     -4.669670     25.600503     25.600503     51.201006
     -4.659660     24.976110     24.976110     49.952219
     -4.649650     24.135376     24.135376     48.270752
     -4.639640     23.682739     23.682739     47.365478
     -4.629630     24.370307     24.370307     48.740613
     -4.619620     26.814639     26.814639     53.629278
     -4.609610     31.201900     31.201900     62.403800
     -4.599600     37.112511     37.112511     74.225021
     -4.589590     43.565522     43.565522     87.131044
     -4.579580     49.298015     49.298015     98.596029
     -4.569570     53.187162     53.187162    106.374325
     -4.559560     54.644933     54.644933    109.289865
     -4.549550     53.814796     53.814796    107.629592
     -4.539540     51.484551     51.484551    102.969101
     -4.529530     48.757433     48.757433     97.514865
     -4.519520     46.627770     46.627770     93.255540
     -4.509510     45.637284     45.637284     91.274569
     -4.499499     45.737774     45.737774     91.475548
     -4.489489     46.388740     46.388740     92.777481
     -4.479479     46.822614     46.822614     93.645228
     -4.469469     46.354141     46.354141     92.708282
     -4.459459     44.611043     44.611043     89.222086
     -4.449449     41.613228     41.613228     83.226455
     -4.439439     37.701791     37.701791     75.403581
     -4.429429     33.382104     33.382104     66.764208
     -4.419419     29.168489     29.168489     58.336979
     -4.409409     25.492713     25.492713     50.985425
     -4.399399     22.683539     22.683539     45.367078
     -4.389389     20.977063     20.977063     41.954127
     -4.379379     20.509339     20.509339     41.018679
     -4.369369     21.276712     21.276712     42.553423
     -4.359359     23.095526     23.095526     46.191053
     -4.349349     25.612373     25.612373     51.224747
     -4.339339     28.391306     28.391306     56.782611
     -4.329329     31.053449     31.053449     62.106897
     -4.319319     33.404466     33.404466     66.808931
     -4.309309     35.483875     35.483875     70.967749
     -4.299299     37.506199     37.506199     75.012398
     -4.289289     39.714122     39.714122     79.428245
     -4.279279     42.202865     42.202865     84.405730
     -4.269269     44.790162     44.790162     89.580325
     -4.259259     46.995696     46.995696     93.991392
     -4.249249     48.159041     48.159041     96.318082
     -4.239239     47.670685     47.670685     95.341369
     -4.229229     45.232816     45.232816     90.465631
     -4.219219     41.035574     41.035574     82.071148
     -4.209209     35.757329     35.757329     71.514657
     -4.199199     30.373265     30.373265     60.746529
     -4.189189     25.847947     25.847947     51.695894
     -4.179179     22.842892     22.842892     45.685785
     -4.169169     21.559028     21.559028     43.118057
     -4.159159     21.765991     21.765991     43.531982
     -4.149149     22.984820     22.984820     45.969641
     -4.139139     24.728701     24.728701     49.457402
     -4.129129     26.690115     26.690115     53.380229
     -4.119119     28.793060     28.793060     57.586120
     -4.109109     31.093033     31.093033     62.186065
     -4.099099     33.583059     33.583059     67.166118
     -4.089089     36.019701     36.019701     72.039401
     -4.079079     37.885122     37.885122     75.770243
     -4.069069     38.535840     38.535840     77.071681
     -4.059059     37.482111     37.482111     74.964222
     -4.049049     34.656370     34.656370     69.312739
     -4.039039     30.523779     30.523779     61.047557
     -4.029029     25.971301     25.971301     51.942603
     -4.019019     22.031028     22.031028     44.062055
     -4.009009     19.572672     19.572672     39.145344
     -3.998999     19.096025     19.096025     38.192050
     -3.988989     20.682415     20.682415     41.364829
     -3.978979     24.079386     24.079386     48.158772
     -3.968969     28.844856     28.844856     57.689712
     -3.958959     34.481571     34.481571     68.963142
     -3.948949     40.529801     40.529801     81.059602
     -3.938939     46.621037     46.621037     93.242074
     -3.928929     52.504564     52.504564    105.009129
     -3.918919     58.045043     58.045043    116.090087
     -3.908909     63.176833     63.176833    126.353666
     -3.898899     67.812195     67.812195    135.624390
     -3.888889     71.734169     71.734169    143.468339
     -3.878879     74.534345     74.534345    149.068690
     -3.868869     75.651504     75.651504    151.303009
     -3.858859     74.523057     74.523057    149.046113
     -3.848849     70.800757     70.800757    141.601515
     -3.838839     64.541684     64.541684    129.083367
     -3.828829     56.288514     56.288514    112.577029
     -3.818819     46.997371     46.997371     93.994743
     -3.808809     37.832672     37.832672     75.665344
     -3.798799     29.897226     29.897226     59.794451
     -3.788789     23.983422     23.983422     47.966845
     -3.778779     20.416388     20.416388     40.832777
     -3.768769     19.024733     19.024733     38.049466
     -3.758759     19.235505     19.235505     38.471011
     -3.748749     20.259521     20.259521     40.519042
     -3.738739     21.316263     21.316263     42.632525
     -3.728729     21.843407     21.843407     43.686814
     -3.718719     21.641826     21.641826     43.283652
     -3.708709     20.920242     20.920242     41.840483
     -3.698699     20.223575     20.223575     40.447151
     -3.688689     20.255394     20.255394     40.510787
     -3.678679     21.635758     21.635758     43.271516
     -3.668669     24.664158     24.664158     49.328316
     -3.658659     29.169516     29.169516     58.339031
     -3.648649     34.511246     34.511246     69.022493
     -3.638639     39.743783     39.743783     79.487566
     -3.628629     43.889273     43.889273     87.778545
     -3.618619     46.214131     46.214131     92.428261
     -3.608609     46.405616     46.405616     92.811233
     -3.598599     44.596779     44.596779     89.193557
     -3.588589     41.259569     41.259569     82.519138
     -3.578579     37.032757     37.032757     74.065515
     -3.568569     32.552306     32.552306     65.104612
     -3.558559     28.322461     28.322461     56.644922
     -3.548549     24.638549     24.638549     49.277099
     -3.538539     21.564850     21.564850     43.129699
     -3.528529     18.972705     18.972705     37.945410
     -3.518519     16.635002     16.635002     33.270003
     -3.508509     14.349268     14.349268     28.698535
     -3.498498     12.041328     12.041328     24.082655
     -3.488488      9.805905      9.805905     19.611810
     -3.478478      7.870967      7.870967     15.741933
     -3.468468      6.508350      6.508350     13.016701
     -3.458458      5.931536      5.931536     11.863073
     -3.448448      6.216967      6.216967     12.433934
     -3.438438      7.270385      7.270385     14.540771
     -3.428428      8.847492      8.847492     17.694984
     -3.418418     10.629403     10.629403     21.258807
     -3.408408     12.339049     12.339049     24.678098
     -3.398398     13.862123     13.862123     27.724246
     -3.388388     15.318626     15.318626     30.637251
     -3.378378     17.038626     17.038626     34.077252
     -3.368368     19.435650     19.435650     38.871300
     -3.358358     22.824276     22.824276     45.648551
     -3.348348     27.260524     27.260524     54.521048
     -3.338338     32.471122     32.471122     64.942243
     -3.328328     37.889570     37.889570     75.779140
     -3.318318     42.768998     42.768998     85.537995
     -3.308308     46.326300     46.326300     92.652599
     -3.298298     47.888964     47.888964     95.777927
     -3.288288     47.034910     47.034910     94.069820
     -3.278278     43.709669     43.709669     87.419339
     -3.268268     38.281765     38.281765     76.563531
     -3.258258     31.491848     31.491848     62.983697
     -3.248248     24.287668     24.287668     48.575337
     -3.238238     17.597103     17.597103     35.194207
     -3.228228     12.128438     12.128438     24.256876
     -3.218218      8.269729      8.269729     16.539457
     -3.208208      6.100559      6.100559     12.201119
     -3.198198      5.473907      5.473907     10.947813
     -3.188188      6.109694      6.109694     12.219388
     -3.178178      7.666575      7.666575     15.333149
     -3.168168      9.795818      9.795818     19.591636
     -3.158158     12.197798     12.197798     24.395595
     -3.148148     14.685507     14.685507     29.371014
     -3.138138     17.227720     17.227720     34.455440
     -3.128128     19.929216     19.929216     39.858432
     -3.118118     22.928906     22.928906     45.857811
     -3.108108     26.250005     26.250005     52.500011
     -3.098098     29.682587     29.682587     59.365173
     -3.088088     32.778489     32.778489     65.556978
     -3.078078     34.982071     34.982071     69.964141
     -3.068068     35.839377     35.839377     71.678753
     -3.058058     35.176565     35.176565     70.353130
     -3.048048     33.153119     33.153119     66.306238
     -3.038038     30.169179     30.169179     60.338359
     -3.028028     26.691068     26.691068     53.382137
     -3.018018     23.099316     23.099316     46.198633
     -3.008008     19.636094     19.636094     39.272188
     -2.997998     16.458011     16.458011     32.916022
     -2.987988     13.736556     13.736556     27.473113
     -2.977978     11.730447     11.730447     23.460895
     -2.967968     10.782967     10.782967     21.565935
     -2.957958     11.244051     11.244051     22.488102
     -2.947948     13.350887     13.350887     26.701773
     -2.937938     17.111575     17.111575     34.223150
     -2.927928     22.231961     22.231961     44.463922
     -2.917918     28.116037     28.116037     56.232074
     -2.907908     33.955736     33.955736     67.911471
     -2.897898     38.901370     38.901370     77.802740
     -2.887888     42.270792     42.270792     84.541585
     -2.877878     43.727619     43.727619     87.455238
     -2.867868     43.356352     43.356352     86.712704
     -2.857858     41.595775     41.595775     83.191550
     -2.847848     39.052120     39.052120     78.104241
     -2.837838     36.271248     36.271248     72.542496
     -2.827828     33.571204     33.571204     67.142407
     -2.817818     31.006504     31.006504     62.013007
     -2.807808     28.466673     28.466673     56.933346
     -2.797798     25.841822     25.841822     51.683643
     -2.787788     23.157236     23.157236     46.314473
     -2.777778     20.604332     20.604332     41.208665
     -2.767768     18.460680     18.460680     36.921360
     -2.757758     16.957698     16.957698     33.915397
     -2.747748     16.181817     16.181817     32.363633
     -2.737738     16.067728     16.067728     32.135457
     -2.727728     16.478447     16.478447     32.956893
     -2.717718     17.307713     17.307713     34.615425
     -2.707708     18.526335     18.526335     37.052670
     -2.697698     20.137033     20.137033     40.274065
     -2.687688     22.074151     22.074151     44.148302
     -2.677678     24.133323     24.133323     48.266647
     -2.667668     26.002386     26.002386     52.004773
     -2.657658     27.393774     27.393774     54.787548
     -2.647648     28.200057     28.200057     56.400115
     -2.637638     28.567770     28.567770     57.135541
     -2.627628     28.833019     28.833019     57.666039
     -2.617618     29.352000     29.352000     58.704000
     -2.607608     30.325159     30.325159     60.650317
     -2.597598     31.709476     31.709476     63.418952
     -2.587588     33.248117     33.248117     66.496235
     -2.577578     34.574396     34.574396     69.148791
     -2.567568     35.320484     35.320484     70.640968
     -2.557558     35.190212     35.190212     70.380425
     -2.547548     34.003114     34.003114     68.006228
     -2.537538     31.737574     31.737574     63.475147
     -2.527528     28.579950     28.579950     57.159900
     -2.517518     24.949918     24.949918     49.899836
     -2.507508     21.458900     21.458900     42.917800
     -2.497497     18.784288     18.784288     37.568575
     -2.487487     17.489367     17.489367     34.978735
     -2.477477     17.854787     17.854787     35.709573
     -2.467467     19.790654     19.790654     39.581308
     -2.457457     22.869271     22.869271     45.738542
     -2.447447     26.471797     26.471797     52.943594
     -2.437437     29.996207     29.996207     59.992413
     -2.427427     33.045461     33.045461     66.090921
     -2.417417     35.516970     35.516970     71.033940
     -2.407407     37.551445     37.551445     75.102889
     -2.397397     39.360904     39.360904     78.721808
     -2.387387     41.016981     41.016981     82.033961
     -2.377377     42.310338     42.310338     84.620677
     -2.367367     42.767698     42.767698     85.535397
     -2.357357     41.837386     41.837386     83.674771
     -2.347347     39.162480     39.162480     78.324960
     -2.337337     34.805908     34.805908     69.611815
     -2.327327     29.311981     29.311981     58.623963
     -2.317317     23.575102     23.575102     47.150204
     -2.307307     18.584446     18.584446     37.168892
     -2.297297     15.162991     15.162991     30.325982
     -2.287287     13.798015     13.798015     27.596031
     -2.277277     14.595591     14.595591     29.191182
     -2.267267     17.331811     17.331811     34.663622
     -2.257257     21.549150     21.549150     43.098301
     -2.247247     26.655661     26.655661     53.311323
     -2.237237     32.007106     32.007106     64.014212
     -2.227227     36.970012     36.970012     73.940023
     -2.217217     40.972108     40.972108     81.944217
     -2.207207     43.548824     43.548824     87.097647
     -2.197197     44.392928     44.392928     88.785856
     -2.187187     43.407365     43.407365     86.814731
     -2.177177     40.747486     40.747486     81.494971
     -2.167167     36.824273     36.824273     73.648546
     -2.157157     32.238987     32.238987     64.477974
     -2.147147     27.643535     27.643535     55.287069
     -2.137137     23.563820     23.563820     47.127641
     -2.127127     20.258126     20.258126     40.516252
     -2.117117     17.679087     17.679087     35.358174
     -2.107107     15.559677     15.559677     31.119354
     -2.097097     13.578353     13.578353     27.156706
     -2.087087     11.519193     11.519193     23.038385
     -2.077077      9.354546      9.354546     18.709092
     -2.067067      7.229110      7.229110     14.458220
     -2.057057      5.378105      5.378105     10.756210
     -2.047047      4.034876      4.034876      8.069753
     -2.037037      3.367930      3.367930      6.735861
     -2.027027      3.453963      3.453963      6.907925
     -2.017017      4.269562      4.269562      8.539124
     -2.007007      5.684859      5.684859     11.369718
     -1.996997      7.461471      7.461471     14.922942
     -1.986987      9.274849      9.274849     18.549697
     -1.976977     10.779341     10.779341     21.558681
     -1.966967     11.709974     11.709974     23.419948
     -1.956957     11.983649     11.983649     23.967298
     -1.946947     11.747974     11.747974     23.495947
     -1.936937     11.342737     11.342737     22.685474
     -1.926927     11.180230     11.180230     22.360461
     -1.916917     11.592119     11.592119     23.184238
     -1.906907     12.707572     12.707572     25.415144
     -1.896897     14.411041     14.411041     28.822082
     -1.886887     16.389834     16.389834     32.779667
     -1.876877     18.243824     18.243824     36.487647
     -1.866867     19.610990     19.610990     39.221979
     -1.856857     20.267031     20.267031     40.534062
     -1.846847     20.175011     20.175011     40.350021
     -1.836837     19.477953     19.477953     38.955907
     -1.826827     18.438373     18.438373     36.876747
     -1.816817     17.339229     17.339229     34.678457
     -1.806807     16.376013     16.376013     32.752026
     -1.796797     15.582764     15.582764     31.165527
     -1.786787     14.829753     14.829753     29.659505
     -1.776777     13.899725     13.899725     27.799449
     -1.766767     12.606889     12.606889     25.213777
     -1.756757     10.897396     10.897396     21.794792
     -1.746747      8.881687      8.881687     17.763375
     -1.736737      6.790626      6.790626     13.581253
     -1.726727      4.889733      4.889733      9.779465
     -1.716717      3.401504      3.401504      6.803008
     -1.706707      2.468984      2.468984      4.937969
     -1.696697      2.160847      2.160847      4.321693
     -1.686687      2.492791      2.492791      4.985581
     -1.676677      3.436213      3.436213      6.872426
     -1.666667      4.901875      4.901875      9.803750
     -1.656657      6.711476      6.711476     13.422952
     -1.646647      8.587606      8.587606     17.175212
     -1.636637     10.190414     10.190414     20.380827
     -1.626627     11.206033     11.206033     22.412065
