# EIG2DOS: Utility for SIESTA to obtain the electronic density of states
#  E. Artacho, Apr 1999, A. Garcia, Apr 2012
#  Nick R. Papior, Feb 2017
# ------------------------------------------
# Eigenvalues calculated from a non-polarized calculation
# Eigenvalues read from siesta.EIG
# Kpoint weights read from siesta.KP
# Using smearing parameter:   0.0500
# Using 1000 points in the energy range
# Selected bands: 1 to: 2981
# Emin, Emax in file for selected band(s):    -27.0901742    218.3432670
# Nbands, Nspin, Nk   =   2981     1     1
# E_F                 =    -4.2626 eV --> (shifted to ZERO)
# Broadening          =     0.0500 eV
#
#        E            N(up)  (=)   N(down)         Ntot
     -5.000000     35.713600     35.713600     71.427199
     -4.989990     38.882229     38.882229     77.764457
     -4.979980     41.453402     41.453402     82.906805
     -4.969970     42.987950     42.987950     85.975900
     -4.959960     43.213644     43.213644     86.427288
     -4.949950     42.091683     42.091683     84.183366
     -4.939940     39.830559     39.830559     79.661117
     -4.929930     36.855558     36.855558     73.711116
     -4.919920     33.754935     33.754935     67.509871
     -4.909910     31.216570     31.216570     62.433141
     -4.899900     29.947181     29.947181     59.894362
     -4.889890     30.550238     30.550238     61.100476
     -4.879880     33.352328     33.352328     66.704657
     -4.869870     38.215714     38.215714     76.431428
     -4.859860     44.428765     44.428765     88.857530
     -4.849850     50.776595     50.776595    101.553189
     -4.839840     55.830333     55.830333    111.660667
     -4.829830     58.376954     58.376954    116.753909
     -4.819820     57.814023     57.814023    115.628047
     -4.809810     54.327988     54.327988    108.655976
     -4.799800     48.776433     48.776433     97.552865
     -4.789790     42.344050     42.344050     84.688100
     -4.779780     36.144655     36.144655     72.289309
     -4.769770     30.938683     30.938683     61.877366
     -4.759760     27.044540     27.044540     54.089079
     -4.749750     24.414128     24.414128     48.828256
     -4.739740     22.783470     22.783470     45.566939
     -4.729730     21.814409     21.814409     43.628818
     -4.719720     21.184691     21.184691     42.369383
     -4.709710     20.624839     20.624839     41.249677
     -4.699700     19.923954     19.923954     39.847908
     -4.689690     18.933135     18.933135     37.866269
     -4.679680     17.588138     17.588138     35.176276
     -4.669670     15.954496     15.954496     31.908993
     -4.659660     14.275259     14.275259     28.550518
     -4.649650     12.986835     12.986835     25.973670
     -4.639640     12.671743     12.671743     25.343487
     -4.629630     13.936935     13.936935     27.873870
     -4.619620     17.233640     17.233640     34.467280
     -4.609610     22.662251     22.662251     45.324501
     -4.599600     29.828941     29.828941     59.657883
     -4.589590     37.829360     37.829360     75.658721
     -4.579580     45.411431     45.411431     90.822861
     -4.569570     51.305306     51.305306    102.610611
     -4.559560     54.623667     54.623667    109.247333
     -4.549550     55.177030     55.177030    110.354060
     -4.539540     53.560774     53.560774    107.121548
     -4.529530     50.958576     50.958576    101.917152
     -4.519520     48.728578     48.728578     97.457156
     -4.509510     47.931134     47.931134     95.862268
     -4.499499     48.976932     48.976932     97.953865
     -4.489489     51.518686     51.518686    103.037372
     -4.479479     54.609736     54.609736    109.219473
     -4.469469     57.052886     57.052886    114.105772
     -4.459459     57.800392     57.800392    115.600784
     -4.449449     56.261852     56.261852    112.523704
     -4.439439     52.428686     52.428686    104.857372
     -4.429429     46.806741     46.806741     93.613482
     -4.419419     40.222534     40.222534     80.445067
     -4.409409     33.598841     33.598841     67.197682
     -4.399399     27.773354     27.773354     55.546707
     -4.389389     23.383901     23.383901     46.767801
     -4.379379     20.804404     20.804404     41.608807
     -4.369369     20.111231     20.111231     40.222463
     -4.359359     21.081929     21.081929     42.163858
     -4.349349     23.247260     23.247260     46.494520
     -4.339339     26.008869     26.008869     52.017738
     -4.329329     28.801224     28.801224     57.602448
     -4.319319     31.243812     31.243812     62.487624
     -4.309309     33.224537     33.224537     66.449075
     -4.299299     34.883063     34.883063     69.766126
     -4.289289     36.504688     36.504688     73.009377
     -4.279279     38.366282     38.366282     76.732565
     -4.269269     40.585229     40.585229     81.170457
     -4.259259     43.017990     43.017990     86.035980
     -4.249249     45.246857     45.246857     90.493713
     -4.239239     46.678350     46.678350     93.356700
     -4.229229     46.742196     46.742196     93.484392
     -4.219219     45.127249     45.127249     90.254497
     -4.209209     41.949618     41.949618     83.899235
     -4.199199     37.758481     37.758481     75.516963
     -4.189189     33.358249     33.358249     66.716497
     -4.179179     29.524265     29.524265     59.048531
     -4.169169     26.749143     26.749143     53.498287
     -4.159159     25.137423     25.137423     50.274846
     -4.149149     24.482111     24.482111     48.964221
     -4.139139     24.462362     24.462362     48.924724
     -4.129129     24.849355     24.849355     49.698710
     -4.119119     25.615343     25.615343     51.230685
     -4.109109     26.894880     26.894880     53.789761
     -4.099099     28.820504     28.820504     57.641009
     -4.089089     31.320678     31.320678     62.641355
     -4.079079     33.998405     33.998405     67.996811
     -4.069069     36.181581     36.181581     72.363163
     -4.059059     37.150846     37.150846     74.301692
     -4.049049     36.446560     36.446560     72.893120
     -4.039039     34.097897     34.097897     68.195794
     -4.029029     30.649608     30.649608     61.299216
     -4.019019     26.972028     26.972028     53.944056
     -4.009009     23.957834     23.957834     47.915668
     -3.998999     22.259066     22.259066     44.518132
     -3.988989     22.173247     22.173247     44.346493
     -3.978979     23.687107     23.687107     47.374214
     -3.968969     26.601887     26.601887     53.203774
     -3.958959     30.646313     30.646313     61.292626
     -3.948949     35.529553     35.529553     71.059106
     -3.938939     40.949941     40.949941     81.899882
     -3.928929     46.604746     46.604746     93.209492
     -3.918919     52.225043     52.225043    104.450086
     -3.908909     57.614560     57.614560    115.229121
     -3.898899     62.646694     62.646694    125.293387
     -3.888889     67.194467     67.194467    134.388935
     -3.878879     71.020465     71.020465    142.040930
     -3.868869     73.698323     73.698323    147.396645
     -3.858859     74.639179     74.639179    149.278358
     -3.848849     73.248504     73.248504    146.497007
     -3.838839     69.165867     69.165867    138.331734
     -3.828829     62.484112     62.484112    124.968224
     -3.818819     53.839195     53.839195    107.678391
     -3.808809     44.314015     44.314015     88.628029
     -3.798799     35.181916     35.181916     70.363832
     -3.788789     27.584166     27.584166     55.168332
     -3.778779     22.256437     22.256437     44.512874
     -3.768769     19.388650     19.388650     38.777299
     -3.758759     18.644585     18.644585     37.289169
     -3.748749     19.314419     19.314419     38.628837
     -3.738739     20.543411     20.543411     41.086822
     -3.728729     21.573573     21.573573     43.147145
     -3.718719     21.942370     21.942370     43.884740
     -3.708709     21.594991     21.594991     43.189982
     -3.698699     20.882628     20.882628     41.765257
     -3.688689     20.441121     20.441121     40.882241
     -3.678679     20.973791     20.973791     41.947581
     -3.668669     22.995458     22.995458     45.990916
     -3.658659     26.619364     26.619364     53.238727
     -3.648649     31.468408     31.468408     62.936816
     -3.638639     36.755256     36.755256     73.510511
     -3.628629     41.509553     41.509553     83.019105
     -3.618619     44.864816     44.864816     89.729633
     -3.608609     46.291099     46.291099     92.582199
     -3.598599     45.691502     45.691502     91.383004
     -3.588589     43.351729     43.351729     86.703459
     -3.578579     39.795901     39.795901     79.591803
     -3.568569     35.621653     35.621653     71.243306
     -3.558559     31.364222     31.364222     62.728445
     -3.548549     27.405215     27.405215     54.810429
     -3.538539     23.926731     23.926731     47.853462
     -3.528529     20.915711     20.915711     41.831423
     -3.518519     18.224124     18.224124     36.448248
     -3.508509     15.672738     15.672738     31.345475
     -3.498498     13.160077     13.160077     26.320154
     -3.488488     10.728750     10.728750     21.457499
     -3.478478      8.560933      8.560933     17.121865
     -3.468468      6.910520      6.910520     13.821041
     -3.458458      6.006095      6.006095     12.012189
     -3.448448      5.962864      5.962864     11.925727
     -3.438438      6.729597      6.729597     13.459195
     -3.428428      8.083505      8.083505     16.167009
     -3.418418      9.678101      9.678101     19.356201
     -3.408408     11.139910     11.139910     22.279820
     -3.398398     12.192246     12.192246     24.384491
     -3.388388     12.764010     12.764010     25.528019
     -3.378378     13.035511     13.035511     26.071022
     -3.368368     13.393831     13.393831     26.787662
     -3.358358     14.309995     14.309995     28.619991
     -3.348348     16.184545     16.184545     32.369089
     -3.338338     19.215016     19.215016     38.430032
     -3.328328     23.317862     23.317862     46.635725
     -3.318318     28.110075     28.110075     56.220149
     -3.308308     32.945498     32.945498     65.890996
     -3.298298     37.009084     37.009084     74.018168
     -3.288288     39.476371     39.476371     78.952743
     -3.278278     39.722349     39.722349     79.444697
     -3.268268     37.519694     37.519694     75.039388
     -3.258258     33.138734     33.138734     66.277468
     -3.248248     27.286544     27.286544     54.573088
     -3.238238     20.896960     20.896960     41.793921
     -3.228228     14.860037     14.860037     29.720075
     -3.218218      9.805910      9.805910     19.611819
     -3.208208      6.019350      6.019350     12.038701
     -3.198198      3.489290      3.489290      6.978580
     -3.188188      2.040204      2.040204      4.080408
     -3.178178      1.476364      1.476364      2.952728
     -3.168168      1.688583      1.688583      3.377167
     -3.158158      2.701473      2.701473      5.402946
     -3.148148      4.658678      4.658678      9.317355
     -3.138138      7.752364      7.752364     15.504727
     -3.128128     12.111211     12.111211     24.222422
     -3.118118     17.675880     17.675880     35.351760
     -3.108108     24.108020     24.108020     48.216039
     -3.098098     30.783585     30.783585     61.567169
     -3.088088     36.899732     36.899732     73.799464
     -3.078078     41.677432     41.677432     83.354864
     -3.068068     44.589065     44.589065     89.178130
     -3.058058     45.512447     45.512447     91.024893
     -3.048048     44.733439     44.733439     89.466878
     -3.038038     42.787374     42.787374     85.574748
     -3.028028     40.213449     40.213449     80.426899
     -3.018018     37.347535     37.347535     74.695071
     -3.008008     34.261018     34.261018     68.522037
     -2.997998     30.870672     30.870672     61.741343
     -2.987988     27.145780     27.145780     54.291561
     -2.977978     23.286383     23.286383     46.572765
     -2.967968     19.771253     19.771253     39.542507
     -2.957958     17.253132     17.253132     34.506263
     -2.947948     16.356257     16.356257     32.712515
     -2.937938     17.464708     17.464708     34.929416
     -2.927928     20.576290     20.576290     41.152580
     -2.917918     25.262045     25.262045     50.524090
     -2.907908     30.740061     30.740061     61.480123
     -2.897898     36.048464     36.048464     72.096927
     -2.887888     40.278329     40.278329     80.556659
     -2.877878     42.802304     42.802304     85.604608
     -2.867868     43.422788     43.422788     86.845577
     -2.857858     42.381775     42.381775     84.763550
     -2.847848     40.224708     40.224708     80.449416
     -2.837838     37.573048     37.573048     75.146097
     -2.827828     34.902199     34.902199     69.804397
     -2.817818     32.418302     32.418302     64.836603
     -2.807808     30.077899     30.077899     60.155798
     -2.797798     27.723066     27.723066     55.446133
     -2.787788     25.249004     25.249004     50.498009
     -2.777778     22.710930     22.710930     45.421859
     -2.767768     20.317588     20.317588     40.635176
     -2.757758     18.326703     18.326703     36.653406
     -2.747748     16.914192     16.914192     33.828383
     -2.737738     16.101046     16.101046     32.202093
     -2.727728     15.781852     15.781852     31.563704
     -2.717718     15.831163     15.831163     31.662326
     -2.707708     16.211151     16.211151     32.422302
     -2.697698     17.001589     17.001589     34.003178
     -2.687688     18.325355     18.325355     36.650711
     -2.677678     20.216506     20.216506     40.433013
     -2.667668     22.523451     22.523451     45.046901
     -2.657658     24.923000     24.923000     49.846000
     -2.647648     27.049510     27.049510     54.099020
     -2.637638     28.664191     28.664191     57.328381
     -2.627628     29.758858     29.758858     59.517716
     -2.617618     30.529853     30.529853     61.059707
     -2.607608     31.243281     31.243281     62.486562
     -2.597598     32.080137     32.080137     64.160275
     -2.587588     33.051351     33.051351     66.102701
     -2.577578     34.012452     34.012452     68.024903
     -2.567568     34.738132     34.738132     69.476263
     -2.557558     34.993526     34.993526     69.987052
     -2.547548     34.572389     34.572389     69.144778
     -2.537538     33.322236     33.322236     66.644471
     -2.527528     31.191978     31.191978     62.383956
     -2.517518     28.304730     28.304730     56.609460
     -2.507508     25.010987     25.010987     50.021975
     -2.497497     21.862979     21.862979     43.725958
     -2.487487     19.487155     19.487155     38.974310
     -2.477477     18.393419     18.393419     36.786839
     -2.467467     18.803412     18.803412     37.606825
     -2.457457     20.578389     20.578389     41.156779
     -2.447447     23.283045     23.283045     46.566091
     -2.437437     26.359740     26.359740     52.719480
     -2.427427     29.337380     29.337380     58.674759
     -2.417417     31.982494     31.982494     63.964988
     -2.407407     34.324573     34.324573     68.649146
     -2.397397     36.544334     36.544334     73.088667
     -2.387387     38.778384     38.778384     77.556767
     -2.377377     40.937480     40.937480     81.874961
     -2.367367     42.636203     42.636203     85.272406
     -2.357357     43.284913     43.284913     86.569826
     -2.347347     42.317713     42.317713     84.635425
     -2.337337     39.458368     39.458368     78.916736
     -2.327327     34.899397     34.899397     69.798793
     -2.317317     29.307280     29.307280     58.614559
     -2.307307     23.650942     23.650942     47.301883
     -2.297297     18.932499     18.932499     37.864999
     -2.287287     15.932362     15.932362     31.864724
     -2.277277     15.053866     15.053866     30.107731
     -2.267267     16.293443     16.293443     32.586887
     -2.257257     19.310768     19.310768     38.621536
     -2.247247     23.551113     23.551113     47.102227
     -2.237237     28.375146     28.375146     56.750293
     -2.227227     33.164555     33.164555     66.329109
     -2.217217     37.386589     37.386589     74.773178
     -2.207207     40.617095     40.617095     81.234190
     -2.197197     42.539637     42.539637     85.079274
     -2.187187     42.949472     42.949472     85.898944
     -2.177177     41.783525     41.783525     83.567051
     -2.167167     39.169282     39.169282     78.338564
     -2.157157     35.453379     35.453379     70.906757
     -2.147147     31.162150     31.162150     62.324301
     -2.137137     26.877212     26.877212     53.754425
     -2.127127     23.064850     23.064850     46.129701
     -2.117117     19.939365     19.939365     39.878731
     -2.107107     17.432913     17.432913     34.865827
     -2.097097     15.287646     15.287646     30.575293
     -2.087087     13.217218     13.217218     26.434436
     -2.077077     11.050376     11.050376     22.100753
     -2.067067      8.789696      8.789696     17.579392
     -2.057057      6.574626      6.574626     13.149253
     -2.047047      4.589788      4.589788      9.179577
     -2.037037      2.976808      2.976808      5.953615
     -2.027027      1.789262      1.789262      3.578524
     -2.017017      0.996724      0.996724      1.993449
     -2.007007      0.519048      0.519048      1.038095
     -1.996997      0.266375      0.266375      0.532751
     -1.986987      0.169194      0.169194      0.338387
     -1.976977      0.194891      0.194891      0.389782
     -1.966967      0.354440      0.354440      0.708881
     -1.956957      0.702828      0.702828      1.405655
     -1.946947      1.332592      1.332592      2.665185
     -1.936937      2.356025      2.356025      4.712051
     -1.926927      3.872481      3.872481      7.744962
     -1.916917      5.924287      5.924287     11.848574
     -1.906907      8.454822      8.454822     16.909644
     -1.896897     11.288441     11.288441     22.576883
     -1.886887     14.147556     14.147556     28.295111
     -1.876877     16.707498     16.707498     33.414997
     -1.866867     18.673021     18.673021     37.346042
     -1.856857     19.851620     19.851620     39.703240
     -1.846847     20.201707     20.201707     40.403414
     -1.836837     19.842491     19.842491     39.684981
     -1.826827     19.021023     19.021023     38.042047
     -1.816817     18.040824     18.040824     36.081649
     -1.806807     17.170203     17.170203     34.340407
     -1.796797     16.563866     16.563866     33.127732
     -1.786787     16.234447     16.234447     32.468895
     -1.776777     16.089085     16.089085     32.178170
     -1.766767     16.007396     16.007396     32.014793
     -1.756757     15.909034     15.909034     31.818068
     -1.746747     15.767223     15.767223     31.534447
     -1.736737     15.567464     15.567464     31.134929
     -1.726727     15.255486     15.255486     30.510971
     -1.716717     14.728651     14.728651     29.457301
     -1.706707     13.890811     13.890811     27.781621
     -1.696697     12.738674     12.738674     25.477348
     -1.686687     11.418285     11.418285     22.836571
     -1.676677     10.204407     10.204407     20.408815
     -1.666667      9.401611      9.401611     18.803222
     -1.656657      9.211980      9.211980     18.423960
     -1.646647      9.633892      9.633892     19.267783
     -1.636637     10.442435     10.442435     20.884870
     -1.626627     11.265257     11.265257     22.530514
