# EIG2DOS: Utility for SIESTA to obtain the electronic density of states
#  E. Artacho, Apr 1999, A. Garcia, Apr 2012
#  Nick R. Papior, Feb 2017
# ------------------------------------------
# Eigenvalues calculated from a non-polarized calculation
# Eigenvalues read from siesta.EIG
# Kpoint weights read from siesta.KP
# Using smearing parameter:   0.0500
# Using 1000 points in the energy range
# Selected bands: 1 to: 2981
# Emin, Emax in file for selected band(s):    -27.0469807    218.3027090
# Nbands, Nspin, Nk   =   2981     1     1
# E_F                 =    -4.3120 eV --> (shifted to ZERO)
# Broadening          =     0.0500 eV
#
#        E            N(up)  (=)   N(down)         Ntot
     -5.000000     46.306923     46.306923     92.613847
     -4.989990     49.274282     49.274282     98.548564
     -4.979980     50.609975     50.609975    101.219950
     -4.969970     50.293128     50.293128    100.586256
     -4.959960     48.527702     48.527702     97.055404
     -4.949950     45.664443     45.664443     91.328886
     -4.939940     42.121284     42.121284     84.242569
     -4.929930     38.340265     38.340265     76.680530
     -4.919920     34.789518     34.789518     69.579036
     -4.909910     31.985691     31.985691     63.971381
     -4.899900     30.490834     30.490834     60.981669
     -4.889890     30.837963     30.837963     61.675926
     -4.879880     33.368507     33.368507     66.737013
     -4.869870     38.021647     38.021647     76.043294
     -4.859860     44.176467     44.176467     88.352934
     -4.849850     50.667895     50.667895    101.335790
     -4.839840     56.040207     56.040207    112.080414
     -4.829830     58.979559     58.979559    117.959119
     -4.819820     58.749700     58.749700    117.499400
     -4.809810     55.427040     55.427040    110.854080
     -4.799800     49.824790     49.824790     99.649581
     -4.789790     43.156865     43.156865     86.313729
     -4.779780     36.616837     36.616837     73.233674
     -4.769770     31.059991     31.059991     62.119983
     -4.759760     26.885418     26.885418     53.770836
     -4.749750     24.096103     24.096103     48.192206
     -4.739740     22.445211     22.445211     44.890422
     -4.729730     21.579631     21.579631     43.159262
     -4.719720     21.136582     21.136582     42.273163
     -4.709710     20.792309     20.792309     41.584619
     -4.699700     20.282928     20.282928     40.565856
     -4.689690     19.419967     19.419967     38.839934
     -4.679680     18.116240     18.116240     36.232480
     -4.669670     16.424638     16.424638     32.849277
     -4.659660     14.576116     14.576116     29.152232
     -4.649650     12.991258     12.991258     25.982516
     -4.639640     12.240503     12.240503     24.481006
     -4.629630     12.941463     12.941463     25.882925
     -4.619620     15.601395     15.601395     31.202790
     -4.609610     20.434042     20.434042     40.868084
     -4.599600     27.201953     27.201953     54.403906
     -4.589590     35.152389     35.152389     70.304777
     -4.579580     43.109772     43.109772     86.219545
     -4.569570     49.743097     49.743097     99.486194
     -4.559560     53.947886     53.947886    107.895771
     -4.549550     55.207455     55.207455    110.414910
     -4.539540     53.778410     53.778410    107.556819
     -4.529530     50.606153     50.606153    101.212305
     -4.519520     46.993158     46.993158     93.986315
     -4.509510     44.153660     44.153660     88.307321
     -4.499499     42.833646     42.833646     85.667291
     -4.489489     43.134629     43.134629     86.269258
     -4.479479     44.581696     44.581696     89.163392
     -4.469469     46.374305     46.374305     92.748609
     -4.459459     47.698990     47.698990     95.397980
     -4.449449     47.983491     47.983491     95.966983
     -4.439439     47.018693     47.018693     94.037385
     -4.429429     44.939140     44.939140     89.878279
     -4.419419     42.106487     42.106487     84.212974
     -4.409409     38.964889     38.964889     77.929777
     -4.399399     35.928035     35.928035     71.856069
     -4.389389     33.323152     33.323152     66.646304
     -4.379379     31.378709     31.378709     62.757418
     -4.369369     30.223380     30.223380     60.446760
     -4.359359     29.874765     29.874765     59.749530
     -4.349349     30.225622     30.225622     60.451245
     -4.339339     31.056038     31.056038     62.112076
     -4.329329     32.092024     32.092024     64.184049
     -4.319319     33.099314     33.099314     66.198629
     -4.309309     33.971470     33.971470     67.942940
     -4.299299     34.767804     34.767804     69.535608
     -4.289289     35.680389     35.680389     71.360779
     -4.279279     36.941247     36.941247     73.882494
     -4.269269     38.701349     38.701349     77.402698
     -4.259259     40.919785     40.919785     81.839571
     -4.249249     43.303059     43.303059     86.606119
     -4.239239     45.332342     45.332342     90.664683
     -4.229229     46.397487     46.397487     92.794974
     -4.219219     46.010616     46.010616     92.021231
     -4.209209     44.015938     44.015938     88.031876
     -4.199199     40.688560     40.688560     81.377119
     -4.189189     36.656158     36.656158     73.312316
     -4.179179     32.670256     32.670256     65.340512
     -4.169169     29.339581     29.339581     58.679161
     -4.159159     26.957473     26.957473     53.914946
     -4.149149     25.496618     25.496618     50.993236
     -4.139139     24.749622     24.749622     49.499244
     -4.129129     24.522181     24.522181     49.044362
     -4.119119     24.770266     24.770266     49.540533
     -4.109109     25.610159     25.610159     51.220318
     -4.099099     27.196426     27.196426     54.392853
     -4.089089     29.531476     29.531476     59.062952
     -4.079079     32.314951     32.314951     64.629902
     -4.069069     34.936164     34.936164     69.872329
     -4.059059     36.647275     36.647275     73.294550
     -4.049049     36.853462     36.853462     73.706924
     -4.039039     35.377840     35.377840     70.755681
     -4.029029     32.559928     32.559928     65.119856
     -4.019019     29.135351     29.135351     58.270703
     -4.009009     25.966522     25.966522     51.933044
     -3.998999     23.768789     23.768789     47.537578
     -3.988989     22.957659     22.957659     45.915318
     -3.978979     23.651458     23.651458     47.302917
     -3.968969     25.769705     25.769705     51.539409
     -3.958959     29.133409     29.133409     58.266819
     -3.948949     33.510894     33.510894     67.021789
     -3.938939     38.619437     38.619437     77.238873
     -3.928929     44.131963     44.131963     88.263927
     -3.918919     49.722377     49.722377     99.444753
     -3.908909     55.133242     55.133242    110.266483
     -3.898899     60.211825     60.211825    120.423650
     -3.888889     64.868415     64.868415    129.736830
     -3.878879     68.961665     68.961665    137.923330
     -3.868869     72.174895     72.174895    144.349789
     -3.858859     73.973692     73.973692    147.947384
     -3.848849     73.706416     73.706416    147.412832
     -3.838839     70.835304     70.835304    141.670609
     -3.828829     65.205847     65.205847    130.411694
     -3.818819     57.224028     57.224028    114.448057
     -3.808809     47.842548     47.842548     95.685095
     -3.798799     38.344399     38.344399     76.688799
     -3.788789     30.005854     30.005854     60.011707
     -3.778779     23.768909     23.768909     47.537818
     -3.768769     20.035652     20.035652     40.071304
     -3.758759     18.634730     18.634730     37.269460
     -3.748749     18.943726     18.943726     37.887452
     -3.738739     20.110234     20.110234     40.220468
     -3.728729     21.303723     21.303723     42.607447
     -3.718719     21.937815     21.937815     43.875630
     -3.708709     21.815789     21.815789     43.631578
     -3.698699     21.166827     21.166827     42.333654
     -3.688689     20.559770     20.559770     41.119541
     -3.678679     20.708553     20.708553     41.417106
     -3.668669     22.217133     22.217133     44.434267
     -3.658659     25.341476     25.341476     50.682951
     -3.648649     29.855184     29.855184     59.710368
     -3.638639     35.078956     35.078956     70.157912
     -3.628629     40.072767     40.072767     80.145534
     -3.618619     43.918291     43.918291     87.836582
     -3.608609     45.977494     45.977494     91.954989
     -3.598599     46.029930     46.029930     92.059860
     -3.588589     44.257477     44.257477     88.514953
     -3.578579     41.117621     41.117621     82.235242
     -3.568569     37.179947     37.179947     74.359894
     -3.558559     32.984693     32.984693     65.969385
     -3.548549     28.945374     28.945374     57.890748
     -3.538539     25.295223     25.295223     50.590446
     -3.528529     22.078695     22.078695     44.157391
     -3.518519     19.194721     19.194721     38.389442
     -3.508509     16.486633     16.486633     32.973267
     -3.498498     13.848139     13.848139     27.696277
     -3.488488     11.299060     11.299060     22.598119
     -3.478478      8.996775      8.996775     17.993550
     -3.468468      7.182289      7.182289     14.364579
     -3.458458      6.089720      6.089720     12.179439
     -3.448448      5.856907      5.856907     11.713815
     -3.438438      6.465395      6.465395     12.930789
     -3.428428      7.724742      7.724742     15.449483
     -3.418418      9.307962      9.307962     18.615925
     -3.408408     10.837120     10.837120     21.674241
     -3.398398     12.002421     12.002421     24.004842
     -3.388388     12.676993     12.676993     25.353986
     -3.378378     12.978821     12.978821     25.957642
     -3.368368     13.246130     13.246130     26.492259
     -3.358358     13.930267     13.930267     27.860535
     -3.348348     15.448208     15.448208     30.896416
     -3.338338     18.049672     18.049672     36.099344
     -3.328328     21.735096     21.735096     43.470192
     -3.318318     26.229365     26.229365     52.458730
     -3.308308     31.000232     31.000232     62.000464
     -3.298298     35.319732     35.319732     70.639463
     -3.288288     38.382414     38.382414     76.764828
     -3.278278     39.485371     39.485371     78.970743
     -3.268268     38.233607     38.233607     76.467214
     -3.258258     34.690152     34.690152     69.380304
     -3.248248     29.388564     29.388564     58.777129
     -3.238238     23.182764     23.182764     46.365529
     -3.228228     16.992737     16.992737     33.985474
     -3.218218     11.556950     11.556950     23.113901
     -3.208208      7.289102      7.289102     14.578203
     -3.198198      4.273070      4.273070      8.546139
     -3.188188      2.362397      2.362397      4.724794
     -3.178178      1.318219      1.318219      2.636438
     -3.168168      0.928559      0.928559      1.857119
     -3.158158      1.081579      1.081579      2.163159
     -3.148148      1.790684      1.790684      3.581368
     -3.138138      3.178881      3.178881      6.357761
     -3.128128      5.428144      5.428144     10.856288
     -3.118118      8.698823      8.698823     17.397646
     -3.108108     13.032694     13.032694     26.065387
     -3.098098     18.269009     18.269009     36.538018
     -3.088088     24.013256     24.013256     48.026512
     -3.078078     29.688671     29.688671     59.377342
     -3.068068     34.666357     34.666357     69.332715
     -3.058058     38.425978     38.425978     76.851956
     -3.048048     40.674531     40.674531     81.349061
     -3.038038     41.369291     41.369291     82.738581
     -3.028028     40.647898     40.647898     81.295796
     -3.018018     38.726947     38.726947     77.453893
     -3.008008     35.845885     35.845885     71.691770
     -2.997998     32.290736     32.290736     64.581472
     -2.987988     28.462991     28.462991     56.925983
     -2.977978     24.916728     24.916728     49.833457
     -2.967968     22.303706     22.303706     44.607412
     -2.957958     21.227283     21.227283     42.454567
     -2.947948     22.065064     22.065064     44.130129
     -2.937938     24.838461     24.838461     49.676921
     -2.927928     29.180725     29.180725     58.361450
     -2.917918     34.409017     34.409017     68.818035
     -2.907908     39.670599     39.670599     79.341197
     -2.897898     44.120822     44.120822     88.241643
     -2.887888     47.094160     47.094160     94.188321
     -2.877878     48.235442     48.235442     96.470884
     -2.867868     47.561523     47.561523     95.123045
     -2.857858     45.430671     45.430671     90.861342
     -2.847848     42.417815     42.417815     84.835629
     -2.837838     39.128073     39.128073     78.256145
     -2.827828     36.012965     36.012965     72.025929
     -2.817818     33.261430     33.261430     66.522861
     -2.807808     30.809673     30.809673     61.619346
     -2.797798     28.459369     28.459369     56.918738
     -2.787788     26.040716     26.040716     52.081431
     -2.777778     23.535101     23.535101     47.070202
     -2.767768     21.096084     21.096084     42.192169
     -2.757758     18.965284     18.965284     37.930568
     -2.747748     17.339790     17.339790     34.679579
     -2.737738     16.274689     16.274689     32.549378
     -2.727728     15.680952     15.680952     31.361904
     -2.717718     15.417749     15.417749     30.835497
     -2.707708     15.416331     15.416331     30.832661
     -2.697698     15.749685     15.749685     31.499369
     -2.687688     16.595027     16.595027     33.190054
     -2.677678     18.105957     18.105957     36.211913
     -2.667668     20.273444     20.273444     40.546888
     -2.657658     22.868069     22.868069     45.736137
     -2.647648     25.508467     25.508467     51.016933
     -2.637638     27.821256     27.821256     55.642512
     -2.627628     29.597947     29.597947     59.195895
     -2.617618     30.856165     30.856165     61.712330
     -2.607608     31.776126     31.776126     63.552252
     -2.597598     32.563879     32.563879     65.127758
     -2.587588     33.331963     33.331963     66.663926
     -2.577578     34.059867     34.059867     68.119734
     -2.567568     34.629305     34.629305     69.258609
     -2.557558     34.881247     34.881247     69.762494
     -2.547548     34.649948     34.649948     69.299896
     -2.537538     33.777024     33.777024     67.554049
     -2.527528     32.143579     32.143579     64.287159
     -2.517518     29.743417     29.743417     59.486834
     -2.507508     26.769046     26.769046     53.538092
     -2.497497     23.644240     23.644240     47.288480
     -2.487487     20.951118     20.951118     41.902236
     -2.477477     19.259865     19.259865     38.519729
     -2.467467     18.932379     18.932379     37.864759
     -2.457457     19.994312     19.994312     39.988625
     -2.447447     22.139936     22.139936     44.279872
     -2.437437     24.870165     24.870165     49.740330
     -2.427427     27.699997     27.699997     55.399994
     -2.417417     30.338197     30.338197     60.676394
     -2.407407     32.754400     32.754400     65.508800
     -2.397397     35.102018     35.102018     70.204036
     -2.387387     37.535634     37.535634     75.071267
     -2.377377     40.015801     40.015801     80.031601
     -2.367367     42.205424     42.205424     84.410848
     -2.357357     43.522667     43.522667     87.045333
     -2.347347     43.341869     43.341869     86.683738
     -2.337337     41.260109     41.260109     82.520218
     -2.327327     37.309825     37.309825     74.619650
     -2.317317     32.019000     32.019000     64.038001
     -2.307307     26.290820     26.290820     52.581640
     -2.297297     21.156492     21.156492     42.312983
     -2.287287     17.503487     17.503487     35.006973
     -2.277277     15.875500     15.875500     31.751000
     -2.267267     16.393883     16.393883     32.787767
     -2.257257     18.796888     18.796888     37.593776
     -2.247247     22.558610     22.558610     45.117219
     -2.237237     27.038431     27.038431     54.076861
     -2.227227     31.615082     31.615082     63.230163
     -2.217217     35.771218     35.771218     71.542435
     -2.207207     39.115613     39.115613     78.231226
     -2.197197     41.359450     41.359450     82.718901
     -2.187187     42.287802     42.287802     84.575604
     -2.177177     41.767982     41.767982     83.535963
     -2.167167     39.804981     39.804981     79.609962
     -2.157157     36.607543     36.607543     73.215087
     -2.147147     32.601465     32.601465     65.202931
     -2.137137     28.346324     28.346324     56.692648
     -2.127127     24.371472     24.371472     48.742945
     -2.117117     21.006705     21.006705     42.013410
     -2.107107     18.297405     18.297405     36.594810
     -2.097097     16.049200     16.049200     32.098400
     -2.087087     13.972646     13.972646     27.945292
     -2.077077     11.844777     11.844777     23.689555
     -2.067067      9.605068      9.605068     19.210136
     -2.057057      7.351854      7.351854     14.703708
     -2.047047      5.264286      5.264286     10.528573
     -2.037037      3.506908      3.506908      7.013816
     -2.027027      2.166591      2.166591      4.333182
     -2.017017      1.240143      1.240143      2.480287
     -2.007007      0.660666      0.660666      1.321332
     -1.996997      0.338059      0.338059      0.676119
     -1.986987      0.193824      0.193824      0.387648
     -1.976977      0.182501      0.182501      0.365003
     -1.966967      0.301503      0.301503      0.603007
     -1.956957      0.593438      0.593438      1.186876
     -1.946947      1.141740      1.141740      2.283480
     -1.936937      2.056080      2.056080      4.112160
     -1.926927      3.443308      3.443308      6.886616
     -1.916917      5.365128      5.365128     10.730256
     -1.906907      7.793518      7.793518     15.587036
     -1.896897     10.582815     10.582815     21.165629
     -1.886887     13.476160     13.476160     26.952320
     -1.876877     16.151588     16.151588     32.303175
     -1.866867     18.295679     18.295679     36.591358
     -1.856857     19.681010     19.681010     39.362020
     -1.846847     20.223182     20.223182     40.446364
     -1.836837     20.000808     20.000808     40.001615
     -1.826827     19.230695     19.230695     38.461390
     -1.816817     18.199510     18.199510     36.399020
     -1.806807     17.166781     17.166781     34.333561
     -1.796797     16.271874     16.271874     32.543748
     -1.786787     15.487429     15.487429     30.974858
     -1.776777     14.648402     14.648402     29.296805
     -1.766767     13.548930     13.548930     27.097861
     -1.756757     12.060150     12.060150     24.120300
     -1.746747     10.209424     10.209424     20.418848
     -1.736737      8.185866      8.185866     16.371732
     -1.726727      6.281097      6.281097     12.562193
     -1.716717      4.806343      4.806343      9.612687
     -1.706707      4.027177      4.027177      8.054353
     -1.696697      4.130976      4.130976      8.261952
     -1.686687      5.213233      5.213233     10.426466
     -1.676677      7.259135      7.259135     14.518270
     -1.666667     10.111719     10.111719     20.223438
     -1.656657     13.444136     13.444136     26.888271
     -1.646647     16.770102     16.770102     33.540205
     -1.636637     19.518730     19.518730     39.037460
     -1.626627     21.168939     21.168939     42.337879
