# EIG2DOS: Utility for SIESTA to obtain the electronic density of states
#  E. Artacho, Apr 1999, A. Garcia, Apr 2012
#  Nick R. Papior, Feb 2017
# ------------------------------------------
# Eigenvalues calculated from a non-polarized calculation
# Eigenvalues read from siesta.EIG
# Kpoint weights read from siesta.KP
# Using smearing parameter:   0.0500
# Using 1000 points in the energy range
# Selected bands: 1 to: 2981
# Emin, Emax in file for selected band(s):    -27.2309748    218.3593040
# Nbands, Nspin, Nk   =   2981     1     1
# E_F                 =    -4.2469 eV --> (shifted to ZERO)
# Broadening          =     0.0500 eV
#
#        E            N(up)  (=)   N(down)         Ntot
     -5.000000     32.556647     32.556647     65.113293
     -4.989990     36.925377     36.925377     73.850754
     -4.979980     40.903595     40.903595     81.807190
     -4.969970     43.853583     43.853583     87.707167
     -4.959960     45.254669     45.254669     90.509338
     -4.949950     44.867490     44.867490     89.734980
     -4.939940     42.817583     42.817583     85.635166
     -4.929930     39.576892     39.576892     79.153785
     -4.919920     35.868855     35.868855     71.737710
     -4.909910     32.541179     32.541179     65.082358
     -4.899900     30.433214     30.433214     60.866427
     -4.889890     30.234749     30.234749     60.469497
     -4.879880     32.325480     32.325480     64.650961
     -4.869870     36.615526     36.615526     73.231053
     -4.859860     42.455294     42.455294     84.910589
     -4.849850     48.700234     48.700234     97.400468
     -4.839840     53.968774     53.968774    107.937547
     -4.829830     57.033925     57.033925    114.067850
     -4.819820     57.200149     57.200149    114.400297
     -4.809810     54.501654     54.501654    109.003308
     -4.799800     49.636341     49.636341     99.272681
     -4.789790     43.677648     43.677648     87.355296
     -4.779780     37.706637     37.706637     75.413274
     -4.769770     32.521667     32.521667     65.043334
     -4.759760     28.515597     28.515597     57.031193
     -4.749750     25.714188     25.714188     51.428376
     -4.739740     23.904273     23.904273     47.808546
     -4.729730     22.771078     22.771078     45.542155
     -4.719720     21.995304     21.995304     43.990608
     -4.709710     21.300741     21.300741     42.601482
     -4.699700     20.471050     20.471050     40.942099
     -4.689690     19.363888     19.363888     38.727777
     -4.679680     17.943107     17.943107     35.886214
     -4.669670     16.329597     16.329597     32.659194
     -4.659660     14.847678     14.847678     29.695356
     -4.649650     14.029668     14.029668     28.059337
     -4.639640     14.545693     14.545693     29.091387
     -4.629630     17.048122     17.048122     34.096244
     -4.619620     21.953139     21.953139     43.906277
     -4.609610     29.217761     29.217761     58.435523
     -4.599600     38.198593     38.198593     76.397185
     -4.589590     47.680647     47.680647     95.361295
     -4.579580     56.121537     56.121537    112.243073
     -4.569570     62.068819     62.068819    124.137638
     -4.559560     64.612783     64.612783    129.225565
     -4.549550     63.691501     63.691501    127.383003
     -4.539540     60.109128     60.109128    120.218255
     -4.529530     55.248562     55.248562    110.497123
     -4.519520     50.593518     50.593518    101.187036
     -4.509510     47.252193     47.252193     94.504385
     -4.499499     45.660401     45.660401     91.320802
     -4.489489     45.552283     45.552283     91.104565
     -4.479479     46.171431     46.171431     92.342863
     -4.469469     46.607874     46.607874     93.215748
     -4.459459     46.118863     46.118863     92.237725
     -4.449449     44.325533     44.325533     88.651066
     -4.439439     41.248618     41.248618     82.497236
     -4.429429     37.217883     37.217883     74.435766
     -4.419419     32.729793     32.729793     65.459587
     -4.409409     28.322675     28.322675     56.645349
     -4.399399     24.499297     24.499297     48.998594
     -4.389389     21.682862     21.682862     43.365724
     -4.379379     20.173944     20.173944     40.347889
     -4.369369     20.093510     20.093510     40.187019
     -4.359359     21.333058     21.333058     42.666116
     -4.349349     23.554774     23.554774     47.109548
     -4.339339     26.270815     26.270815     52.541629
     -4.329329     28.988329     28.988329     57.976658
     -4.319319     31.365134     31.365134     62.730269
     -4.309309     33.308765     33.308765     66.617530
     -4.299299     34.975478     34.975478     69.950956
     -4.289289     36.668637     36.668637     73.337273
     -4.279279     38.673882     38.673882     77.347765
     -4.269269     41.089121     41.089121     82.178241
     -4.259259     43.711697     43.711697     87.423394
     -4.249249     46.035750     46.035750     92.071500
     -4.239239     47.384418     47.384418     94.768836
     -4.229229     47.150009     47.150009     94.300017
     -4.219219     45.054800     45.054800     90.109601
     -4.209209     41.312434     41.312434     82.624868
     -4.199199     36.599060     36.599060     73.198121
     -4.189189     31.832137     31.832137     63.664275
     -4.179179     27.854965     27.854965     55.709930
     -4.169169     25.173901     25.173901     50.347802
     -4.159159     23.862297     23.862297     47.724594
     -4.149149     23.654028     23.654028     47.308057
     -4.139139     24.156644     24.156644     48.313287
     -4.129129     25.067558     25.067558     50.135116
     -4.119119     26.289644     26.289644     52.579288
     -4.109109     27.898472     27.898472     55.796944
     -4.099099     29.985484     29.985484     59.970968
     -4.089089     32.463775     32.463775     64.927550
     -4.079079     34.950954     34.950954     69.901909
     -4.069069     36.816171     36.816171     73.632342
     -4.059059     37.396715     37.396715     74.793431
     -4.049049     36.290568     36.290568     72.581137
     -4.039039     33.575314     33.575314     67.150628
     -4.029029     29.833639     29.833639     59.667277
     -4.019019     25.968669     25.968669     51.937337
     -4.009009     22.904436     22.904436     45.808872
     -3.998999     21.317348     21.317348     42.634697
     -3.988989     21.507718     21.507718     43.015437
     -3.978979     23.429407     23.429407     46.858814
     -3.968969     26.813985     26.813985     53.627969
     -3.958959     31.300898     31.300898     62.601797
     -3.948949     36.519273     36.519273     73.038546
     -3.938939     42.122396     42.122396     84.244791
     -3.928929     47.807207     47.807207     95.614414
     -3.918919     53.339446     53.339446    106.678892
     -3.908909     58.570220     58.570220    117.140440
     -3.898899     63.410357     63.410357    126.820715
     -3.888889     67.748277     67.748277    135.496553
     -3.878879     71.343478     71.343478    142.686956
     -3.868869     73.764248     73.764248    147.528495
     -3.858859     74.432710     74.432710    148.865419
     -3.848849     72.789962     72.789962    145.579925
     -3.838839     68.526529     68.526529    137.053058
     -3.828829     61.778513     61.778513    123.557026
     -3.818819     53.194548     53.194548    106.389096
     -3.808809     43.831361     43.831361     87.662723
     -3.798799     34.908624     34.908624     69.817249
     -3.788789     27.509698     27.509698     55.019397
     -3.778779     22.329370     22.329370     44.658739
     -3.768769     19.542626     19.542626     39.085252
     -3.758759     18.819956     18.819956     37.639913
     -3.748749     19.468765     19.468765     38.937530
     -3.738739     20.651859     20.651859     41.303719
     -3.728729     21.623989     21.623989     43.247978
     -3.718719     21.930300     21.930300     43.860601
     -3.708709     21.520907     21.520907     43.041815
     -3.698699     20.751851     20.751851     41.503701
     -3.688689     20.265599     20.265599     40.531198
     -3.678679     20.774270     20.774270     41.548540
     -3.668669     22.801925     22.801925     45.603849
     -3.658659     26.467508     26.467508     52.935016
     -3.648649     31.391077     31.391077     62.782155
     -3.638639     36.770768     36.770768     73.541536
     -3.628629     41.611917     41.611917     83.223834
     -3.618619     45.021831     45.021831     90.043661
     -3.608609     46.453339     46.453339     92.906677
     -3.598599     45.809438     45.809438     91.618877
     -3.588589     43.393284     43.393284     86.786567
     -3.578579     39.756143     39.756143     79.512286
     -3.568569     35.520798     35.520798     71.041595
     -3.558559     31.236495     31.236495     62.472991
     -3.548549     27.285266     27.285266     54.570531
     -3.538539     23.839805     23.839805     47.679610
     -3.528529     20.873958     20.873958     41.747917
     -3.518519     18.227574     18.227574     36.455148
     -3.508509     15.712022     15.712022     31.424044
     -3.498498     13.218971     13.218971     26.437943
     -3.488488     10.786328     10.786328     21.572656
     -3.478478      8.594114      8.594114     17.188229
     -3.468468      6.897724      6.897724     13.795448
     -3.458458      5.932154      5.932154     11.864308
     -3.448448      5.824586      5.824586     11.649172
     -3.438438      6.540407      6.540407     13.080813
     -3.428428      7.874769      7.874769     15.749537
     -3.418418      9.494856      9.494856     18.989712
     -3.408408     11.030486     11.030486     22.060973
     -3.398398     12.194295     12.194295     24.388590
     -3.388388     12.891870     12.891870     25.783739
     -3.378378     13.273831     13.273831     26.547663
     -3.368368     13.699954     13.699954     27.399907
     -3.358358     14.624490     14.624490     29.248980
     -3.348348     16.447715     16.447715     32.895430
     -3.338338     19.387440     19.387440     38.774879
     -3.328328     23.403661     23.403661     46.807322
     -3.318318     28.180983     28.180983     56.361966
     -3.308308     33.161815     33.161815     66.323629
     -3.298298     37.631215     37.631215     75.262430
     -3.288288     40.858757     40.858757     81.717514
     -3.278278     42.280648     42.280648     84.561296
     -3.268268     41.664107     41.664107     83.328214
     -3.258258     39.174948     39.174948     78.349896
     -3.248248     35.302719     35.302719     70.605438
     -3.238238     30.674606     30.674606     61.349213
     -3.228228     25.854649     25.854649     51.709299
     -3.218218     21.226981     21.226981     42.453962
     -3.208208     17.000009     17.000009     34.000019
     -3.198198     13.292645     13.292645     26.585289
     -3.188188     10.228518     10.228518     20.457036
     -3.178178      7.983618      7.983618     15.967236
     -3.168168      6.777417      6.777417     13.554833
     -3.158158      6.828510      6.828510     13.657020
     -3.148148      8.298439      8.298439     16.596879
     -3.138138     11.235091     11.235091     22.470183
     -3.128128     15.520332     15.520332     31.040665
     -3.118118     20.832348     20.832348     41.664696
     -3.108108     26.642502     26.642502     53.285003
     -3.098098     32.266311     32.266311     64.532623
     -3.088088     36.973275     36.973275     73.946550
     -3.078078     40.135999     40.135999     80.271998
     -3.068068     41.376193     41.376193     82.752386
     -3.058058     40.655001     40.655001     81.310003
     -3.048048     38.266840     38.266840     76.533681
     -3.038038     34.731074     34.731074     69.462148
     -3.028028     30.622534     30.622534     61.245067
     -3.018018     26.414795     26.414795     52.829590
     -3.008008     22.405263     22.405263     44.810527
     -2.997998     18.746244     18.746244     37.492487
     -2.987988     15.547529     15.547529     31.095058
     -2.977978     12.980803     12.980803     25.961606
     -2.967968     11.323681     11.323681     22.647363
     -2.957958     10.920140     10.920140     21.840279
     -2.947948     12.075703     12.075703     24.151406
     -2.937938     14.929246     14.929246     29.858492
     -2.927928     19.347113     19.347113     38.694225
     -2.917918     24.878748     24.878748     49.757497
     -2.907908     30.800689     30.800689     61.601377
     -2.897898     36.253964     36.253964     72.507927
     -2.887888     40.446838     40.446838     80.893677
     -2.877878     42.860526     42.860526     85.721051
     -2.867868     43.380212     43.380212     86.760424
     -2.857858     42.293530     42.293530     84.587059
     -2.847848     40.151178     40.151178     80.302357
     -2.837838     37.546509     37.546509     75.093019
     -2.827828     34.909915     34.909915     69.819830
     -2.817818     32.406745     32.406745     64.813490
     -2.807808     29.975221     29.975221     59.950442
     -2.797798     27.469794     27.469794     54.939589
     -2.787788     24.823685     24.823685     49.647370
     -2.777778     22.140183     22.140183     44.280366
     -2.767768     19.667729     19.667729     39.335457
     -2.757758     17.682686     17.682686     35.365372
     -2.747748     16.356523     16.356523     32.713046
     -2.737738     15.690041     15.690041     31.380082
     -2.727728     15.552745     15.552745     31.105489
     -2.717718     15.796996     15.796996     31.593991
     -2.707708     16.367059     16.367059     32.734119
     -2.697698     17.325552     17.325552     34.651105
     -2.687688     18.775280     18.775280     37.550560
     -2.677678     20.728311     20.728311     41.456622
     -2.667668     23.016240     23.016240     46.032481
     -2.657658     25.313967     25.313967     50.627933
     -2.647648     27.274748     27.274748     54.549496
     -2.637638     28.696565     28.696565     57.393130
     -2.627628     29.614372     29.614372     59.228744
     -2.617618     30.259883     30.259883     60.519766
     -2.607608     30.917292     30.917292     61.834585
     -2.597598     31.766927     31.766927     63.533855
     -2.587588     32.804670     32.804670     65.609339
     -2.577578     33.862251     33.862251     67.724502
     -2.567568     34.686201     34.686201     69.372401
     -2.557558     35.013420     35.013420     70.026840
     -2.547548     34.615527     34.615527     69.231054
     -2.537538     33.331189     33.331189     66.662379
     -2.527528     31.118026     31.118026     62.236053
     -2.517518     28.123082     28.123082     56.246165
     -2.507508     24.727511     24.727511     49.455022
     -2.497497     21.510911     21.510911     43.021821
     -2.487487     19.117621     19.117621     38.235242
     -2.477477     18.065572     18.065572     36.131144
     -2.467467     18.577637     18.577637     37.155275
     -2.457457     20.511942     20.511942     41.023883
     -2.447447     23.425201     23.425201     46.850401
     -2.437437     26.744518     26.744518     53.489035
     -2.427427     29.974625     29.974625     59.949250
     -2.417417     32.850000     32.850000     65.699999
     -2.407407     35.363765     35.363765     70.727530
     -2.397397     37.660910     37.660910     75.321821
     -2.387387     39.848935     39.848935     79.697869
     -2.377377     41.823726     41.823726     83.647452
     -2.367367     43.208133     43.208133     86.416266
     -2.357357     43.450619     43.450619     86.901237
     -2.347347     42.051870     42.051870     84.103739
     -2.337337     38.817354     38.817354     77.634709
     -2.327327     34.013477     34.013477     68.026953
     -2.317317     28.349491     28.349491     56.698982
     -2.307307     22.793177     22.793177     45.586353
     -2.297297     18.304945     18.304945     36.609890
     -2.287287     15.599900     15.599900     31.199800
     -2.277277     15.014706     15.014706     30.029411
     -2.267267     16.496350     16.496350     32.992699
     -2.257257     19.681478     19.681478     39.362956
     -2.247247     24.016865     24.016865     48.033730
     -2.237237     28.878380     28.878380     57.756760
     -2.227227     33.662364     33.662364     67.324727
     -2.217217     37.839943     37.839943     75.679885
     -2.207207     40.979716     40.979716     81.959432
     -2.197197     42.756705     42.756705     85.513410
     -2.187187     42.969978     42.969978     85.939957
     -2.177177     41.580749     41.580749     83.161497
     -2.167167     38.757579     38.757579     77.515158
     -2.157157     34.890452     34.890452     69.780903
     -2.147147     30.533588     30.533588     61.067175
     -2.137137     26.269667     26.269667     52.539335
     -2.127127     22.540159     22.540159     45.080318
     -2.117117     19.520973     19.520973     39.041946
     -2.107107     17.109120     17.109120     34.218239
     -2.097097     15.027542     15.027542     30.055084
     -2.087087     12.989770     12.989770     25.979541
     -2.077077     10.837471     10.837471     21.674942
     -2.067067      8.589000      8.589000     17.178001
     -2.057057      6.394165      6.394165     12.788331
     -2.047047      4.439568      4.439568      8.879135
     -2.037037      2.862459      2.862459      5.724919
     -2.027027      1.709903      1.709903      3.419807
     -2.017017      0.946317      0.946317      1.892635
     -2.007007      0.489143      0.489143      0.978286
     -1.996997      0.248341      0.248341      0.496682
     -1.986987      0.155059      0.155059      0.310118
     -1.976977      0.177006      0.177006      0.354011
     -1.966967      0.324938      0.324938      0.649875
     -1.956957      0.654548      0.654548      1.309096
     -1.946947      1.263723      1.263723      2.527447
     -1.936937      2.281002      2.281002      4.562004
     -1.926927      3.840833      3.840833      7.681667
     -1.916917      6.046297      6.046297     12.092595
     -1.906907      8.927814      8.927814     17.855629
     -1.896897     12.411446     12.411446     24.822892
     -1.886887     16.308047     16.308047     32.616094
     -1.876877     20.326122     20.326122     40.652243
     -1.866867     24.104197     24.104197     48.208394
     -1.856857     27.258760     27.258760     54.517520
     -1.846847     29.447576     29.447576     58.895152
     -1.836837     30.444274     30.444274     60.888548
     -1.826827     30.204021     30.204021     60.408041
     -1.816817     28.885076     28.885076     57.770152
     -1.806807     26.798919     26.798919     53.597838
     -1.796797     24.298627     24.298627     48.597253
     -1.786787     21.658116     21.658116     43.316233
     -1.776777     19.007295     19.007295     38.014590
     -1.766767     16.354716     16.354716     32.709433
     -1.756757     13.672892     13.672892     27.345784
     -1.746747     10.984778     10.984778     21.969557
     -1.736737      8.398742      8.398742     16.797484
     -1.726727      6.081821      6.081821     12.163641
     -1.716717      4.201998      4.201998      8.403995
     -1.706707      2.881519      2.881519      5.763038
     -1.696697      2.183915      2.183915      4.367830
     -1.686687      2.127467      2.127467      4.254934
     -1.676677      2.699798      2.699798      5.399596
     -1.666667      3.851756      3.851756      7.703512
     -1.656657      5.468912      5.468912     10.937823
     -1.646647      7.341974      7.341974     14.683947
     -1.636637      9.168278      9.168278     18.336556
     -1.626627     10.606284     10.606284     21.212568
