# EIG2DOS: Utility for SIESTA to obtain the electronic density of states
#  E. Artacho, Apr 1999, A. Garcia, Apr 2012
#  Nick R. Papior, Feb 2017
# ------------------------------------------
# Eigenvalues calculated from a non-polarized calculation
# Eigenvalues read from siesta.EIG
# Kpoint weights read from siesta.KP
# Using smearing parameter:   0.0500
# Using 1000 points in the energy range
# Selected bands: 1 to: 2981
# Emin, Emax in file for selected band(s):    -27.0547227    218.3233270
# Nbands, Nspin, Nk   =   2981     1     1
# E_F                 =    -4.2829 eV --> (shifted to ZERO)
# Broadening          =     0.0500 eV
#
#        E            N(up)  (=)   N(down)         Ntot
     -5.000000     41.949753     41.949753     83.899505
     -4.989990     43.330767     43.330767     86.661535
     -4.979980     44.173258     44.173258     88.346516
     -4.969970     44.279883     44.279883     88.559765
     -4.959960     43.489607     43.489607     86.979213
     -4.949950     41.766435     41.766435     83.532869
     -4.939940     39.251084     39.251084     78.502168
     -4.929930     36.269855     36.269855     72.539709
     -4.919920     33.312664     33.312664     66.625328
     -4.909910     30.988989     30.988989     61.977978
     -4.899900     29.952624     29.952624     59.905249
     -4.889890     30.774315     30.774315     61.548630
     -4.879880     33.757941     33.757941     67.515882
     -4.869870     38.744793     38.744793     77.489587
     -4.859860     45.002560     45.002560     90.005120
     -4.849850     51.302168     51.302168    102.604336
     -4.839840     56.216768     56.216768    112.433536
     -4.829830     58.557606     58.557606    117.115211
     -4.819820     57.765270     57.765270    115.530541
     -4.809810     54.074719     54.074719    108.149438
     -4.799800     48.380723     48.380723     96.761445
     -4.789790     41.882326     41.882326     83.764652
     -4.779780     35.684162     35.684162     71.368324
     -4.769770     30.522899     30.522899     61.045797
     -4.759760     26.690922     26.690922     53.381844
     -4.749750     24.121043     24.121043     48.242085
     -4.739740     22.540252     22.540252     45.080504
     -4.729730     21.609773     21.609773     43.219546
     -4.719720     21.011659     21.011659     42.023319
     -4.709710     20.482465     20.482465     40.964929
     -4.699700     19.816574     19.816574     39.633148
     -4.689690     18.867640     18.867640     37.735281
     -4.679680     17.569950     17.569950     35.139900
     -4.669670     15.983609     15.983609     31.967218
     -4.659660     14.344073     14.344073     28.688147
     -4.649650     13.080802     13.080802     26.161605
     -4.639640     12.772408     12.772408     25.544816
     -4.629630     14.025843     14.025843     28.051685
     -4.619620     17.295558     17.295558     34.591116
     -4.609610     22.686929     22.686929     45.373858
     -4.599600     29.811227     29.811227     59.622453
     -4.589590     37.767085     37.767085     75.534170
     -4.579580     45.299407     45.299407     90.598815
     -4.569570     51.123192     51.123192    102.246383
     -4.559560     54.316761     54.316761    108.633523
     -4.549550     54.632828     54.632828    109.265656
     -4.539540     52.589898     52.589898    105.179796
     -4.529530     49.294786     49.294786     98.589571
     -4.519520     46.065392     46.065392     92.130784
     -4.509510     44.007027     44.007027     88.014053
     -4.499499     43.702784     43.702784     87.405569
     -4.489489     45.112243     45.112243     90.224486
     -4.479479     47.675236     47.675236     95.350471
     -4.469469     50.540863     50.540863    101.081726
     -4.459459     52.818597     52.818597    105.637194
     -4.449449     53.776547     53.776547    107.553093
     -4.439439     52.962432     52.962432    105.924864
     -4.429429     50.260441     50.260441    100.520882
     -4.419419     45.903714     45.903714     91.807429
     -4.409409     40.445132     40.445132     80.890264
     -4.399399     34.672458     34.672458     69.344915
     -4.389389     29.458705     29.458705     58.917410
     -4.379379     25.567066     25.567066     51.134132
     -4.369369     23.464014     23.464014     46.928029
     -4.359359     23.208921     23.208921     46.417843
     -4.349349     24.468628     24.468628     48.937256
     -4.339339     26.656759     26.656759     53.313517
     -4.329329     29.144241     29.144241     58.288483
     -4.319319     31.458139     31.458139     62.916277
     -4.309309     33.395940     33.395940     66.791881
     -4.299299     35.024506     35.024506     70.049013
     -4.289289     36.581244     36.581244     73.162489
     -4.279279     38.324752     38.324752     76.649504
     -4.269269     40.386210     40.386210     80.772419
     -4.259259     42.663927     42.663927     85.327853
     -4.249249     44.795757     44.795757     89.591514
     -4.239239     46.234741     46.234741     92.469482
     -4.229229     46.426022     46.426022     92.852045
     -4.219219     45.033106     45.033106     90.066212
     -4.209209     42.114915     42.114915     84.229830
     -4.199199     38.154762     38.154762     76.309524
     -4.189189     33.907322     33.907322     67.814643
     -4.179179     30.128314     30.128314     60.256628
     -4.169169     27.319300     27.319300     54.638600
     -4.159159     25.610039     25.610039     51.220077
     -4.149149     24.821298     24.821298     49.642597
     -4.139139     24.654660     24.654660     49.309320
     -4.129129     24.897817     24.897817     49.795633
     -4.119119     25.536902     25.536902     51.073805
     -4.109109     26.720108     26.720108     53.440216
     -4.099099     28.592255     28.592255     57.184511
     -4.089089     31.088906     31.088906     62.177812
     -4.079079     33.811392     33.811392     67.622784
     -4.069069     36.076646     36.076646     72.153291
     -4.059059     37.148285     37.148285     74.296571
     -4.049049     36.548631     36.548631     73.097263
     -4.039039     34.291603     34.291603     68.583205
     -4.029029     30.910198     30.910198     61.820397
     -4.019019     27.264979     27.264979     54.529958
     -4.009009     24.239954     24.239954     48.479908
     -3.998999     22.481762     22.481762     44.963524
     -3.988989     22.290466     22.290466     44.580931
     -3.978979     23.666960     23.666960     47.333920
     -3.968969     26.437062     26.437062     52.874124
     -3.958959     30.357309     30.357309     60.714618
     -3.948949     35.157749     35.157749     70.315497
     -3.938939     40.542730     40.542730     81.085461
     -3.928929     46.199222     46.199222     92.398444
     -3.918919     51.837665     51.837665    103.675330
     -3.908909     57.241657     57.241657    114.483314
     -3.898899     62.275866     62.275866    124.551731
     -3.888889     66.821726     66.821726    133.643453
     -3.878879     70.664416     70.664416    141.328833
     -3.868869     73.402915     73.402915    146.805831
     -3.858859     74.461530     74.461530    148.923060
     -3.848849     73.236294     73.236294    146.472589
     -3.838839     69.335318     69.335318    138.670636
     -3.828829     62.809995     62.809995    125.619989
     -3.818819     54.261958     54.261958    108.523917
     -3.808809     44.759839     44.759839     89.519678
     -3.798799     35.585394     35.585394     71.170788
     -3.788789     27.903709     27.903709     55.807418
     -3.778779     22.478112     22.478112     44.956224
     -3.768769     19.520525     19.520525     39.041049
     -3.758759     18.707006     18.707006     37.414012
     -3.748749     19.331111     19.331111     38.662222
     -3.738739     20.535614     20.535614     41.071229
     -3.728729     21.556952     21.556952     43.113903
     -3.718719     21.925454     21.925454     43.850907
     -3.708709     21.578350     21.578350     43.156699
     -3.698699     20.858982     20.858982     41.717964
     -3.688689     20.397206     20.397206     40.794412
     -3.678679     20.894619     20.894619     41.789239
     -3.668669     22.870578     22.870578     45.741157
     -3.658659     26.449340     26.449340     52.898680
     -3.648649     31.268762     31.268762     62.537523
     -3.638639     36.555374     36.555374     73.110749
     -3.628629     41.345935     41.345935     82.691870
     -3.618619     44.770730     44.770730     89.541461
     -3.608609     46.286768     46.286768     92.573536
     -3.598599     45.778859     45.778859     91.557717
     -3.588589     43.515499     43.515499     87.030998
     -3.578579     40.009697     40.009697     80.019395
     -3.568569     35.855810     35.855810     71.711620
     -3.558559     31.592183     31.592183     63.184367
     -3.548549     27.606954     27.606954     55.213908
     -3.538539     24.089569     24.089569     48.179138
     -3.528529     21.033828     21.033828     42.067656
     -3.518519     18.297877     18.297877     36.595755
     -3.508509     15.708115     15.708115     31.416230
     -3.498498     13.167954     13.167954     26.335907
     -3.488488     10.723522     10.723522     21.447044
     -3.478478      8.558387      8.558387     17.116774
     -3.468468      6.925109      6.925109     13.850217
     -3.458458      6.047940      6.047940     12.095879
     -3.448448      6.034910      6.034910     12.069820
     -3.438438      6.825609      6.825609     13.651218
     -3.428428      8.187951      8.187951     16.375902
     -3.418418      9.768879      9.768879     19.537759
     -3.408408     11.193924     11.193924     22.387848
     -3.398398     12.192342     12.192342     24.384685
     -3.388388     12.704696     12.704696     25.409392
     -3.378378     12.925048     12.925048     25.850096
     -3.368368     13.251860     13.251860     26.503719
     -3.358358     14.161716     14.161716     28.323431
     -3.348348     16.053612     16.053612     32.107223
     -3.338338     19.117360     19.117360     38.234719
     -3.328328     23.258107     23.258107     46.516213
     -3.318318     28.081593     28.081593     56.163185
     -3.308308     32.934294     32.934294     65.868588
     -3.298298     37.000335     37.000335     74.000671
     -3.288288     39.460960     39.460960     78.921921
     -3.278278     39.700255     39.700255     79.400510
     -3.268268     37.498542     37.498542     74.997083
     -3.258258     33.128518     33.128518     66.257037
     -3.248248     27.293705     27.293705     54.587410
     -3.238238     20.920927     20.920927     41.841853
     -3.228228     14.893140     14.893140     29.786280
     -3.218218      9.834778      9.834778     19.669556
     -3.208208      6.024171      6.024171     12.048342
     -3.198198      3.437256      3.437256      6.874513
     -3.188188      1.870794      1.870794      3.741588
     -3.178178      1.078736      1.078736      2.157472
     -3.168168      0.875985      0.875985      1.751969
     -3.158158      1.194446      1.194446      2.388891
     -3.148148      2.095834      2.095834      4.191668
     -3.138138      3.748795      3.748795      7.497591
     -3.128128      6.373114      6.373114     12.746228
     -3.118118     10.153197     10.153197     20.306395
     -3.108108     15.133190     15.133190     30.266381
     -3.098098     21.123126     21.123126     42.246251
     -3.088088     27.657166     27.657166     55.314332
     -3.078078     34.037999     34.037999     68.075997
     -3.068068     39.471822     39.471822     78.943644
     -3.058058     43.257442     43.257442     86.514885
     -3.048048     44.963212     44.963212     89.926424
     -3.038038     44.526658     44.526658     89.053316
     -3.028028     42.245664     42.245664     84.491329
     -3.018018     38.677631     38.677631     77.355261
     -3.008008     34.496065     34.496065     68.992130
     -2.997998     30.356462     30.356462     60.712923
     -2.987988     26.802010     26.802010     53.604020
     -2.977978     24.215688     24.215688     48.431376
     -2.967968     22.813109     22.813109     45.626217
     -2.957958     22.666936     22.666936     45.333872
     -2.947948     23.747344     23.747344     47.494688
     -2.937938     25.953108     25.953108     51.906216
     -2.927928     29.108654     29.108654     58.217309
     -2.917918     32.925987     32.925987     65.851974
     -2.907908     36.966904     36.966904     73.933808
     -2.897898     40.660247     40.660247     81.320493
     -2.887888     43.406860     43.406860     86.813721
     -2.877878     44.748664     44.748664     89.497327
     -2.867868     44.525341     44.525341     89.050683
     -2.857858     42.932436     42.932436     85.864872
     -2.847848     40.439345     40.439345     80.878690
     -2.837838     37.599346     37.599346     75.198692
     -2.827828     34.841940     34.841940     69.683881
     -2.817818     32.346498     32.346498     64.692996
     -2.807808     30.051164     30.051164     60.102328
     -2.797798     27.778498     27.778498     55.556997
     -2.787788     25.399701     25.399701     50.799401
     -2.777778     22.944585     22.944585     45.889169
     -2.767768     20.601447     20.601447     41.202894
     -2.757758     18.617729     18.617729     37.235457
     -2.747748     17.170232     17.170232     34.340464
     -2.737738     16.288623     16.288623     32.577246
     -2.727728     15.878738     15.878738     31.757475
     -2.717718     15.825247     15.825247     31.650494
     -2.707708     16.099052     16.099052     32.198104
     -2.697698     16.789811     16.789811     33.579623
     -2.687688     18.033948     18.033948     36.067897
     -2.677678     19.882030     19.882030     39.764060
     -2.667668     22.196875     22.196875     44.393750
     -2.657658     24.660211     24.660211     49.320423
     -2.647648     26.896526     26.896526     53.793053
     -2.637638     28.643186     28.643186     57.286372
     -2.627628     29.861624     29.861624     59.723248
     -2.617618     30.721724     30.721724     61.443448
     -2.607608     31.475164     31.475164     62.950329
     -2.597598     32.302901     32.302901     64.605802
     -2.587588     33.227317     33.227317     66.454634
     -2.577578     34.121856     34.121856     68.243712
     -2.567568     34.781046     34.781046     69.562092
     -2.557558     34.988209     34.988209     69.976418
     -2.547548     34.550168     34.550168     69.100337
     -2.537538     33.318996     33.318996     66.637991
     -2.527528     31.237874     31.237874     62.475749
     -2.517518     28.415483     28.415483     56.830965
     -2.507508     25.184016     25.184016     50.368033
     -2.497497     22.079274     22.079274     44.158547
     -2.487487     19.716825     19.716825     39.433651
     -2.477477     18.601618     18.601618     37.203236
     -2.467467     18.954522     18.954522     37.909044
     -2.457457     20.638743     20.638743     41.277486
     -2.447447     23.223943     23.223943     46.447885
     -2.437437     26.162020     26.162020     52.324039
     -2.427427     28.997023     28.997023     57.994047
     -2.417417     31.515229     31.515229     63.030458
     -2.407407     33.767380     33.767380     67.534760
     -2.397397     35.952904     35.952904     71.905809
     -2.387387     38.220818     38.220818     76.441636
     -2.377377     40.484968     40.484968     80.969935
     -2.367367     42.351382     42.351382     84.702764
     -2.357357     43.209089     43.209089     86.418179
     -2.347347     42.459619     42.459619     84.919238
     -2.337337     39.788676     39.788676     79.577352
     -2.327327     35.354742     35.354742     70.709484
     -2.317317     29.804334     29.804334     59.608667
     -2.307307     24.106498     24.106498     48.212996
     -2.297297     19.282548     19.282548     38.565095
     -2.287287     16.143626     16.143626     32.287253
     -2.277277     15.124794     15.124794     30.249589
     -2.267267     16.246011     16.246011     32.492022
     -2.257257     19.177669     19.177669     38.355338
     -2.247247     23.364062     23.364062     46.728123
     -2.237237     28.158917     28.158917     56.317834
     -2.227227     32.938300     32.938300     65.876599
     -2.217217     37.169894     37.169894     74.339788
     -2.207207     40.435308     40.435308     80.870615
     -2.197197     42.423311     42.423311     84.846622
     -2.187187     42.926637     42.926637     85.853274
     -2.177177     41.868526     41.868526     83.737052
     -2.167167     39.354683     39.354683     78.709366
     -2.157157     35.710046     35.710046     71.420093
     -2.147147     31.448116     31.448116     62.896232
     -2.137137     27.151248     27.151248     54.302497
     -2.127127     23.298554     23.298554     46.597108
     -2.117117     20.122783     20.122783     40.245566
     -2.107107     17.572320     17.572320     35.144640
     -2.097097     15.397860     15.397860     30.795720
     -2.087087     13.312870     13.312870     26.625740
     -2.077077     11.140097     11.140097     22.280193
     -2.067067      8.874878      8.874878     17.749755
     -2.057057      6.651852      6.651852     13.303705
     -2.047047      4.654574      4.654574      9.309148
     -2.037037      3.026471      3.026471      6.052941
     -2.027027      1.823956      1.823956      3.647912
     -2.017017      1.018915      1.018915      2.037829
     -2.007007      0.532346      0.532346      1.064692
     -1.996997      0.274584      0.274584      0.549168
     -1.986987      0.175964      0.175964      0.351928
     -1.976977      0.203967      0.203967      0.407934
     -1.966967      0.370142      0.370142      0.740285
     -1.956957      0.730272      0.730272      1.460545
     -1.946947      1.377085      1.377085      2.754170
     -1.936937      2.421257      2.421257      4.842514
     -1.926927      3.957714      3.957714      7.915427
     -1.916917      6.021598      6.021598     12.043196
     -1.906907      8.548239      8.548239     17.096478
     -1.896897     11.356693     11.356693     22.713387
     -1.886887     14.170778     14.170778     28.341557
     -1.876877     16.675898     16.675898     33.351795
     -1.866867     18.593584     18.593584     37.187168
     -1.856857     19.748852     19.748852     39.497704
     -1.846847     20.110402     20.110402     40.220804
     -1.836837     19.793580     19.793580     39.587160
     -1.826827     19.023656     19.023656     38.047312
     -1.816817     18.063957     18.063957     36.127914
     -1.806807     17.125772     17.125772     34.251544
     -1.796797     16.293113     16.293113     32.586226
     -1.786787     15.501250     15.501250     31.002499
     -1.776777     14.589312     14.589312     29.178624
     -1.766767     13.408279     13.408279     26.816559
     -1.756757     11.930918     11.930918     23.861837
     -1.746747     10.305508     10.305508     20.611017
     -1.736737      8.825059      8.825059     17.650118
     -1.726727      7.827735      7.827735     15.655470
     -1.716717      7.575068      7.575068     15.150136
     -1.706707      8.158852      8.158852     16.317703
     -1.696697      9.470314      9.470314     18.940628
     -1.686687     11.238765     11.238765     22.477530
     -1.676677     13.120717     13.120717     26.241435
     -1.666667     14.800916     14.800916     29.601831
     -1.656657     16.062096     16.062096     32.124191
     -1.646647     16.797693     16.797693     33.595387
     -1.636637     16.976126     16.976126     33.952252
     -1.626627     16.595713     16.595713     33.191427
