# EIG2DOS: Utility for SIESTA to obtain the electronic density of states
#  E. Artacho, Apr 1999, A. Garcia, Apr 2012
#  Nick R. Papior, Feb 2017
# ------------------------------------------
# Eigenvalues calculated from a non-polarized calculation
# Eigenvalues read from siesta.EIG
# Kpoint weights read from siesta.KP
# Using smearing parameter:   0.0500
# Using 1000 points in the energy range
# Selected bands: 1 to: 2981
# Emin, Emax in file for selected band(s):    -27.3618139    218.4048510
# Nbands, Nspin, Nk   =   2981     1     1
# E_F                 =    -4.1919 eV --> (shifted to ZERO)
# Broadening          =     0.0500 eV
#
#        E            N(up)  (=)   N(down)         Ntot
     -5.000000     31.651562     31.651562     63.303125
     -4.989990     36.890910     36.890910     73.781821
     -4.979980     41.845120     41.845120     83.690240
     -4.969970     45.640602     45.640602     91.281204
     -4.959960     47.546618     47.546618     95.093235
     -4.949950     47.220387     47.220387     94.440775
     -4.939940     44.825696     44.825696     89.651393
     -4.929930     40.992295     40.992295     81.984591
     -4.919920     36.656165     36.656165     73.312329
     -4.909910     32.853654     32.853654     65.707308
     -4.899900     30.524501     30.524501     61.049001
     -4.889890     30.339933     30.339933     60.679866
     -4.879880     32.555356     32.555356     65.110713
     -4.869870     36.908028     36.908028     73.816055
     -4.859860     42.612235     42.612235     85.224470
     -4.849850     48.503887     48.503887     97.007774
     -4.839840     53.333179     53.333179    106.666358
     -4.829830     56.123467     56.123467    112.246935
     -4.819820     56.459963     56.459963    112.919925
     -4.809810     54.585074     54.585074    109.170147
     -4.799800     51.257720     51.257720    102.515440
     -4.789790     47.439485     47.439485     94.878969
     -4.779780     43.944666     43.944666     87.889333
     -4.769770     41.197385     41.197385     82.394770
     -4.759760     39.178496     39.178496     78.356992
     -4.749750     37.553306     37.553306     75.106611
     -4.739740     35.894325     35.894325     71.788649
     -4.729730     33.885387     33.885387     67.770774
     -4.719720     31.421934     31.421934     62.843869
     -4.709710     28.587815     28.587815     57.175630
     -4.699700     25.555773     25.555773     51.111547
     -4.689690     22.491693     22.491693     44.983386
     -4.679680     19.525773     19.525773     39.051546
     -4.669670     16.801029     16.801029     33.602058
     -4.659660     14.555701     14.555701     29.111402
     -4.649650     13.173252     13.173252     26.346504
     -4.639640     13.149760     13.149760     26.299520
     -4.629630     14.968194     14.968194     29.936388
     -4.619620     18.911083     18.911083     37.822167
     -4.609610     24.875086     24.875086     49.750173
     -4.599600     32.267151     32.267151     64.534302
     -4.589590     40.052883     40.052883     80.105766
     -4.579580     46.982502     46.982502     93.965004
     -4.569570     51.943340     51.943340    103.886680
     -4.559560     54.313583     54.313583    108.627166
     -4.549550     54.167165     54.167165    108.334329
     -4.539540     52.230744     52.230744    104.461489
     -4.529530     49.600937     49.600937     99.201874
     -4.519520     47.337328     47.337328     94.674656
     -4.509510     46.098288     46.098288     92.196575
     -4.499499     45.959568     45.959568     91.919136
     -4.489489     46.469187     46.469187     92.938374
     -4.479479     46.890786     46.890786     93.781572
     -4.469469     46.517170     46.517170     93.034339
     -4.459459     44.923119     44.923119     89.846237
     -4.449449     42.071186     42.071186     84.142371
     -4.439439     38.260258     38.260258     76.520517
     -4.429429     33.976019     33.976019     67.952039
     -4.419419     29.732173     29.732173     59.464347
     -4.409409     25.970352     25.970352     51.940704
     -4.399399     23.032383     23.032383     46.064767
     -4.389389     21.168271     21.168271     42.336541
     -4.379379     20.530317     20.530317     41.060634
     -4.369369     21.134330     21.134330     42.268659
     -4.359359     22.815642     22.815642     45.631284
     -4.349349     25.231434     25.231434     50.462868
     -4.339339     27.940785     27.940785     55.881570
     -4.329329     30.544157     30.544157     61.088314
     -4.319319     32.820656     32.820656     65.641313
     -4.309309     34.793928     34.793928     69.587856
     -4.299299     36.688654     36.688654     73.377307
     -4.289289     38.788972     38.788972     77.577944
     -4.279279     41.252915     41.252915     82.505831
     -4.269269     43.958862     43.958862     87.917724
     -4.259259     46.456457     46.456457     92.912914
     -4.249249     48.063744     48.063744     96.127487
     -4.239239     48.096196     48.096196     96.192392
     -4.229229     46.147850     46.147850     92.295700
     -4.219219     42.302912     42.302912     84.605824
     -4.209209     37.171076     37.171076     74.342152
     -4.199199     31.715526     31.715526     63.431052
     -4.189189     26.942363     26.942363     53.884726
     -4.179179     23.587035     23.587035     47.174070
     -4.169169     21.929374     21.929374     43.858748
     -4.159159     21.800488     21.800488     43.600977
     -4.149149     22.753814     22.753814     45.507629
     -4.139139     24.305433     24.305433     48.610866
     -4.129129     26.130301     26.130301     52.260602
     -4.119119     28.130609     28.130609     56.261219
     -4.109109     30.354091     30.354091     60.708181
     -4.099099     32.811822     32.811822     65.623644
     -4.089089     35.300088     35.300088     70.600176
     -4.079079     37.340065     37.340065     74.680129
     -4.069069     38.296099     38.296099     76.592198
     -4.059059     37.635435     37.635435     75.270869
     -4.049049     35.203005     35.203005     70.406010
     -4.039039     31.363825     31.363825     62.727650
     -4.029029     26.932234     26.932234     53.864468
     -4.019019     22.921441     22.921441     45.842881
     -4.009009     20.235960     20.235960     40.471920
     -3.998999     19.442018     19.442018     38.884036
     -3.988989     20.690441     20.690441     41.380883
     -3.978979     23.781041     23.781041     47.562083
     -3.968969     28.300320     28.300320     56.600639
     -3.958959     33.759404     33.759404     67.518807
     -3.948949     39.692820     39.692820     79.385641
     -3.938939     45.716810     45.716810     91.433621
     -3.928929     51.560324     51.560324    103.120649
     -3.918919     57.070204     57.070204    114.140407
     -3.908909     62.176480     62.176480    124.352961
     -3.898899     66.809582     66.809582    133.619164
     -3.888889     70.792406     70.792406    141.584811
     -3.878879     73.763444     73.763444    147.526887
     -3.868869     75.191233     75.191233    150.382467
     -3.858859     74.503451     74.503451    149.006902
     -3.848849     71.294413     71.294413    142.588825
     -3.838839     65.527858     65.527858    131.055716
     -3.828829     57.645174     57.645174    115.290349
     -3.818819     48.525829     48.525829     97.051658
     -3.808809     39.306404     39.306404     78.612808
     -3.798799     31.117967     31.117967     62.235934
     -3.788789     24.826615     24.826615     49.653230
     -3.778779     20.853529     20.853529     41.707059
     -3.768769     19.118615     19.118615     38.237230
     -3.758759     19.112318     19.112318     38.224637
     -3.748749     20.067188     20.067188     40.134375
     -3.738739     21.180711     21.180711     42.361422
     -3.728729     21.833990     21.833990     43.667980
     -3.718719     21.754381     21.754381     43.508762
     -3.708709     21.082011     21.082011     42.164022
     -3.698699     20.319056     20.319056     40.638113
     -3.688689     20.166638     20.166638     40.333276
     -3.678679     21.285661     21.285661     42.571323
     -3.668669     24.048531     24.048531     48.097062
     -3.658659     28.365595     28.365595     56.731190
     -3.648649     33.658026     33.658026     67.316053
     -3.638639     39.000969     39.000969     78.001937
     -3.628629     43.391245     43.391245     86.782490
     -3.618619     46.037023     46.037023     92.074046
     -3.608609     46.557891     46.557891     93.115783
     -3.598599     45.031381     45.031381     90.062762
     -3.588589     41.896862     41.896862     83.793723
     -3.578579     37.782914     37.782914     75.565827
     -3.568569     33.331797     33.331797     66.663594
     -3.558559     29.065416     29.065416     58.130831
     -3.548549     25.305400     25.305400     50.610800
     -3.538539     22.148551     22.148551     44.297102
     -3.528529     19.501375     19.501375     39.002749
     -3.518519     17.172019     17.172019     34.344038
     -3.508509     14.995793     14.995793     29.991586
     -3.498498     12.946641     12.946641     25.893282
     -3.488488     11.184504     11.184504     22.369008
     -3.478478     10.014098     10.014098     20.028197
     -3.468468      9.769153      9.769153     19.538307
     -3.458458     10.665613     10.665613     21.331225
     -3.448448     12.677485     12.677485     25.354970
     -3.438438     15.482803     15.482803     30.965606
     -3.428428     18.509654     18.509654     37.019307
     -3.418418     21.083295     21.083295     42.166590
     -3.408408     22.636452     22.636452     45.272903
     -3.398398     22.909379     22.909379     45.818759
     -3.388388     22.057359     22.057359     44.114717
     -3.378378     20.615325     20.615325     41.230650
     -3.368368     19.330930     19.330930     38.661859
     -3.358358     18.934015     18.934015     37.868030
     -3.348348     19.928875     19.928875     39.857750
     -3.338338     22.468864     22.468864     44.937728
     -3.328328     26.325817     26.325817     52.651633
     -3.318318     30.935140     30.935140     61.870279
     -3.308308     35.497820     35.497820     70.995640
     -3.298298     39.136128     39.136128     78.272257
     -3.288288     41.097207     41.097207     82.194414
     -3.278278     40.963921     40.963921     81.927842
     -3.268268     38.791475     38.791475     77.582950
     -3.258258     35.088824     35.088824     70.177648
     -3.248248     30.628101     30.628101     61.256202
     -3.238238     26.160154     26.160154     52.320307
     -3.228228     22.172487     22.172487     44.344974
     -3.218218     18.801355     18.801355     37.602710
     -3.208208     15.917973     15.917973     31.835947
     -3.198198     13.313997     13.313997     26.627994
     -3.188188     10.874493     10.874493     21.748986
     -3.178178      8.660697      8.660697     17.321394
     -3.168168      6.893018      6.893018     13.786037
     -3.158158      5.875784      5.875784     11.751568
     -3.148148      5.912236      5.912236     11.824472
     -3.138138      7.232391      7.232391     14.464782
     -3.128128      9.929489      9.929489     19.858978
     -3.118118     13.897780     13.897780     27.795560
     -3.108108     18.785220     18.785220     37.570440
     -3.098098     23.997007     23.997007     47.994014
     -3.088088     28.783598     28.783598     57.567196
     -3.078078     32.411094     32.411094     64.822188
     -3.068068     34.360413     34.360413     68.720825
     -3.058058     34.469745     34.469745     68.939490
     -3.048048     32.950562     32.950562     65.901124
     -3.038038     30.268972     30.268972     60.537943
     -3.028028     26.955944     26.955944     53.911889
     -3.018018     23.445355     23.445355     46.890709
     -3.008008     20.014319     20.014319     40.028638
     -2.997998     16.833596     16.833596     33.667192
     -2.987988     14.072428     14.072428     28.144857
     -2.977978     11.980779     11.980779     23.961558
     -2.967968     10.897506     10.897506     21.795013
     -2.957958     11.179652     11.179652     22.359304
     -2.947948     13.084675     13.084675     26.169351
     -2.937938     16.650965     16.650965     33.301930
     -2.927928     21.618576     21.618576     43.237152
     -2.917918     27.422129     27.422129     54.844257
     -2.907908     33.272936     33.272936     66.545872
     -2.897898     38.323263     38.323263     76.646526
     -2.887888     41.873021     41.873021     83.746043
     -2.877878     43.551199     43.551199     87.102397
     -2.867868     43.400101     43.400101     86.800203
     -2.857858     41.821270     41.821270     83.642540
     -2.847848     39.399615     39.399615     78.799229
     -2.837838     36.679819     36.679819     73.359638
     -2.827828     33.994095     33.994095     67.988190
     -2.817818     31.415259     31.415259     62.830518
     -2.807808     28.844221     28.844221     57.688442
     -2.797798     26.171228     26.171228     52.342457
     -2.787788     23.415069     23.415069     46.830138
     -2.777778     20.763796     20.763796     41.527592
     -2.767768     18.502251     18.502251     37.004501
     -2.757758     16.878859     16.878859     33.757717
     -2.747748     15.997238     15.997238     31.994476
     -2.737738     15.797720     15.797720     31.595440
     -2.727728     16.132921     16.132921     32.265842
     -2.717718     16.878539     16.878539     33.757079
     -2.707708     17.997396     17.997396     35.994792
     -2.697698     19.509163     19.509163     39.018326
     -2.687688     21.389092     21.389092     42.778184
     -2.677678     23.477018     23.477018     46.954035
     -2.667668     25.478533     25.478533     50.957067
     -2.657658     27.078088     27.078088     54.156176
     -2.647648     28.100762     28.100762     56.201523
     -2.637638     28.616788     28.616788     57.233576
     -2.627628     28.914596     28.914596     57.829192
     -2.617618     29.353175     29.353175     58.706349
     -2.607608     30.181158     30.181158     60.362316
     -2.597598     31.423645     31.423645     62.847290
     -2.587588     32.883653     32.883653     65.767306
     -2.577578     34.229820     34.229820     68.459641
     -2.567568     35.103044     35.103044     70.206088
     -2.557558     35.193424     35.193424     70.386849
     -2.547548     34.286709     34.286709     68.573417
     -2.537538     32.308060     32.308060     64.616120
     -2.527528     29.376635     29.376635     58.753270
     -2.517518     25.846265     25.846265     51.692529
     -2.507508     22.285982     22.285982     44.571964
     -2.497497     19.372828     19.372828     38.745656
     -2.487487     17.716622     17.716622     35.433245
     -2.477477     17.679028     17.679028     35.358056
     -2.467467     19.260746     19.260746     38.521492
     -2.457457     22.106540     22.106540     44.213079
     -2.447447     25.631422     25.631422     51.262844
     -2.437437     29.222118     29.222118     58.444236
     -2.427427     32.434352     32.434352     64.868704
     -2.417417     35.103226     35.103226     70.206451
     -2.407407     37.316892     37.316892     74.633784
     -2.397397     39.263916     39.263916     78.527832
     -2.387387     41.027634     41.027634     82.055268
     -2.377377     42.435035     42.435035     84.870070
     -2.367367     43.050318     43.050318     86.100635
     -2.357357     42.334867     42.334867     84.669733
     -2.347347     39.906597     39.906597     79.813194
     -2.337337     35.771874     35.771874     71.543749
     -2.327327     30.411622     30.411622     60.823244
     -2.317317     24.678423     24.678423     49.356845
     -2.307307     19.557496     19.557496     39.114992
     -2.297297     15.902522     15.902522     31.805044
     -2.287287     14.248455     14.248455     28.496909
     -2.277277     14.746132     14.746132     29.492264
     -2.267267     17.201995     17.201995     34.403989
     -2.257257     21.174458     21.174458     42.348915
     -2.247247     26.080691     26.080691     52.161383
     -2.237237     31.287135     31.287135     62.574270
     -2.227227     36.176290     36.176290     72.352580
     -2.217217     40.194139     40.194139     80.388277
     -2.207207     42.888049     42.888049     85.776097
     -2.197197     43.946000     43.946000     87.891999
     -2.187187     43.242566     43.242566     86.485133
     -2.177177     40.883341     40.883341     81.766683
     -2.167167     37.222156     37.222156     74.444312
     -2.157157     32.818743     32.818743     65.637487
     -2.147147     28.322543     28.322543     56.645085
     -2.137137     24.309219     24.309219     48.618439
     -2.127127     21.135198     21.135198     42.270396
     -2.117117     18.879331     18.879331     37.758661
     -2.107107     17.397840     17.397840     34.795680
     -2.097097     16.453453     16.453453     32.906905
     -2.087087     15.837972     15.837972     31.675943
     -2.077077     15.420785     15.420785     30.841571
     -2.067067     15.114254     15.114254     30.228508
     -2.057057     14.806709     14.806709     29.613418
     -2.047047     14.331147     14.331147     28.662294
     -2.037037     13.502945     13.502945     27.005890
     -2.027027     12.203093     12.203093     24.406187
     -2.017017     10.448681     10.448681     20.897362
     -2.007007      8.402765      8.402765     16.805529
     -1.996997      6.318620      6.318620     12.637239
     -1.986987      4.454282      4.454282      8.908564
     -1.976977      3.005140      3.005140      6.010280
     -1.966967      2.082905      2.082905      4.165810
     -1.956957      1.737304      1.737304      3.474608
     -1.946947      1.993803      1.993803      3.987606
     -1.936937      2.877101      2.877101      5.754203
     -1.926927      4.403381      4.403381      8.806762
     -1.916917      6.544768      6.544768     13.089537
     -1.906907      9.186833      9.186833     18.373665
     -1.896897     12.106237     12.106237     24.212474
     -1.886887     14.987740     14.987740     29.975479
     -1.876877     17.481659     17.481659     34.963318
     -1.866867     19.284524     19.284524     38.569048
     -1.856857     20.216205     20.216205     40.432411
     -1.846847     20.268469     20.268469     40.536939
     -1.836837     19.607855     19.607855     39.215709
     -1.826827     18.526175     18.526175     37.052351
     -1.816817     17.346205     17.346205     34.692410
     -1.806807     16.309642     16.309642     32.619284
     -1.796797     15.491526     15.491526     30.983053
     -1.786787     14.784023     14.784023     29.568046
     -1.776777     13.963874     13.963874     27.927747
     -1.766767     12.813626     12.813626     25.627252
     -1.756757     11.235567     11.235567     22.471133
     -1.746747      9.302232      9.302232     18.604464
     -1.736737      7.226094      7.226094     14.452189
     -1.726727      5.276576      5.276576     10.553152
     -1.716717      3.695025      3.695025      7.390050
     -1.706707      2.646911      2.646911      5.293822
     -1.696697      2.218499      2.218499      4.436998
     -1.686687      2.436416      2.436416      4.872832
     -1.676677      3.279931      3.279931      6.559862
     -1.666667      4.669394      4.669394      9.338789
     -1.656657      6.439248      6.439248     12.878496
     -1.646647      8.324081      8.324081     16.648161
     -1.636637      9.987788      9.987788     19.975576
     -1.626627     11.105458     11.105458     22.210917
