# EIG2DOS: Utility for SIESTA to obtain the electronic density of states
#  E. Artacho, Apr 1999, A. Garcia, Apr 2012
#  Nick R. Papior, Feb 2017
# ------------------------------------------
# Eigenvalues calculated from a non-polarized calculation
# Eigenvalues read from siesta.EIG
# Kpoint weights read from siesta.KP
# Using smearing parameter:   0.0500
# Using 1000 points in the energy range
# Selected bands: 1 to: 2981
# Emin, Emax in file for selected band(s):    -27.0589014    218.3344170
# Nbands, Nspin, Nk   =   2981     1     1
# E_F                 =    -4.2725 eV --> (shifted to ZERO)
# Broadening          =     0.0500 eV
#
#        E            N(up)  (=)   N(down)         Ntot
     -5.000000     37.187681     37.187681     74.375361
     -4.989990     39.749224     39.749224     79.498448
     -4.979980     41.818341     41.818341     83.636681
     -4.969970     42.974805     42.974805     85.949610
     -4.959960     42.951728     42.951728     85.903457
     -4.949950     41.704446     41.704446     83.408892
     -4.939940     39.423573     39.423573     78.847146
     -4.929930     36.506603     36.506603     73.013207
     -4.919920     33.510307     33.510307     67.020614
     -4.909910     31.094627     31.094627     62.189254
     -4.899900     29.946255     29.946255     59.892509
     -4.889890     30.656428     30.656428     61.312856
     -4.879880     33.543970     33.543970     67.087940
     -4.869870     38.464210     38.464210     76.928420
     -4.859860     44.698188     44.698188     89.396376
     -4.849850     51.025494     51.025494    102.050988
     -4.839840     56.017805     56.017805    112.035609
     -4.829830     58.471938     58.471938    116.943876
     -4.819820     57.803876     57.803876    115.607753
     -4.809810     54.221761     54.221761    108.443523
     -4.799800     48.600723     48.600723     97.201445
     -4.789790     42.133259     42.133259     84.266519
     -4.779780     35.930315     35.930315     71.860630
     -4.769770     30.742367     30.742367     61.484733
     -4.759760     26.876254     26.876254     53.752508
     -4.749750     24.275031     24.275031     48.550062
     -4.739740     22.670212     22.670212     45.340423
     -4.729730     21.722817     21.722817     43.445633
     -4.719720     21.111878     21.111878     42.223756
     -4.709710     20.569903     20.569903     41.139806
     -4.699700     19.887679     19.887679     39.775357
     -4.689690     18.916916     18.916916     37.833833
     -4.679680     17.592337     17.592337     35.184674
     -4.669670     15.976676     15.976676     31.953352
     -4.659660     14.309074     14.309074     28.618149
     -4.649650     13.022208     13.022208     26.044415
     -4.639640     12.696465     12.696465     25.392929
     -4.629630     13.939287     13.939287     27.878575
     -4.619620     17.205328     17.205328     34.410657
     -4.609610     22.600789     22.600789     45.201579
     -4.599600     29.738383     29.738383     59.476766
     -4.589590     37.717845     37.717845     75.435690
     -4.579580     45.283898     45.283898     90.567796
     -4.569570     51.150402     51.150402    102.300804
     -4.559560     54.395827     54.395827    108.791655
     -4.549550     54.777915     54.777915    109.555830
     -4.539540     52.828403     52.828403    105.656805
     -4.529530     49.676420     49.676420     99.352840
     -4.519520     46.667505     46.667505     93.335009
     -4.509510     44.929694     44.929694     89.859388
     -4.499499     45.047002     45.047002     90.094005
     -4.489489     46.938352     46.938352     93.876704
     -4.479479     49.948533     49.948533     99.897066
     -4.469469     53.085141     53.085141    106.170282
     -4.459459     55.307721     55.307721    110.615442
     -4.449449     55.787884     55.787884    111.575767
     -4.439439     54.089579     54.089579    108.179159
     -4.429429     50.247231     50.247231    100.494462
     -4.419419     44.739952     44.739952     89.479904
     -4.409409     38.375842     38.375842     76.751684
     -4.399399     32.113990     32.113990     64.227979
     -4.389389     26.861688     26.861688     53.723376
     -4.379379     23.288456     23.288456     46.576913
     -4.369369     21.696869     21.696869     43.393739
     -4.359359     21.982466     21.982466     43.964933
     -4.349349     23.697780     23.697780     47.395561
     -4.339339     26.206879     26.206879     52.413759
     -4.329329     28.883969     28.883969     57.767938
     -4.319319     31.289301     31.289301     62.578601
     -4.309309     33.262831     33.262831     66.525663
     -4.299299     34.910017     34.910017     69.820034
     -4.289289     36.496114     36.496114     72.992228
     -4.279279     38.293192     38.293192     76.586385
     -4.269269     40.429888     40.429888     80.859776
     -4.259259     42.787480     42.787480     85.574961
     -4.249249     44.978586     44.978586     89.957171
     -4.239239     46.433139     46.433139     92.866277
     -4.229229     46.585781     46.585781     93.171562
     -4.219219     45.107484     45.107484     90.214968
     -4.209209     42.079861     42.079861     84.159723
     -4.199199     38.014802     38.014802     76.029605
     -4.189189     33.690693     33.690693     67.381385
     -4.179179     29.875298     29.875298     59.750595
     -4.169169     27.069991     27.069991     54.139983
     -4.159159     25.396197     25.396197     50.792394
     -4.149149     24.663347     24.663347     49.326694
     -4.139139     24.562028     24.562028     49.124056
     -4.129129     24.870195     24.870195     49.740389
     -4.119119     25.565247     25.565247     51.130494
     -4.109109     26.787908     26.787908     53.575815
     -4.099099     28.678160     28.678160     57.356319
     -4.089089     31.171016     31.171016     62.342033
     -4.079079     33.872011     33.872011     67.744022
     -4.069069     36.105448     36.105448     72.210896
     -4.059059     37.142501     37.142501     74.285001
     -4.049049     36.510633     36.510633     73.021266
     -4.039039     34.226001     34.226001     68.452002
     -4.029029     30.822735     30.822735     61.645470
     -4.019019     27.163932     27.163932     54.327864
     -4.009009     24.138446     24.138446     48.276892
     -3.998999     22.398133     22.398133     44.796267
     -3.988989     22.244879     22.244879     44.489759
     -3.978979     23.675037     23.675037     47.350075
     -3.968969     26.503780     26.503780     53.007559
     -3.958959     30.474736     30.474736     60.949471
     -3.948949     35.308180     35.308180     70.616360
     -3.938939     40.705781     40.705781     81.411562
     -3.928929     46.359382     46.359382     92.718765
     -3.918919     51.988786     51.988786    103.977572
     -3.908909     57.386504     57.386504    114.773008
     -3.898899     62.421165     62.421165    124.842330
     -3.888889     66.971107     66.971107    133.942213
     -3.878879     70.812628     70.812628    141.625256
     -3.868869     73.534392     73.534392    147.068783
     -3.858859     74.554533     74.554533    149.109066
     -3.848849     73.271122     73.271122    146.542244
     -3.838839     69.302721     69.302721    138.605442
     -3.828829     62.715590     62.715590    125.431181
     -3.818819     54.124511     54.124511    108.249021
     -3.808809     44.604562     44.604562     89.209124
     -3.798799     35.435867     35.435867     70.871734
     -3.788789     27.776106     27.776106     55.552213
     -3.778779     22.379559     22.379559     44.759117
     -3.768769     19.450944     19.450944     38.901887
     -3.758759     18.662418     18.662418     37.324836
     -3.748749     19.306434     19.306434     38.612868
     -3.738739     20.526113     20.526113     41.052225
     -3.728729     21.558602     21.558602     43.117203
     -3.718719     21.934999     21.934999     43.869997
     -3.708709     21.593625     21.593625     43.187249
     -3.698699     20.879504     20.879504     41.759008
     -3.688689     20.424524     20.424524     40.849048
     -3.678679     20.931792     20.931792     41.863583
     -3.668669     22.920488     22.920488     45.840977
     -3.658659     26.512261     26.512261     53.024522
     -3.648649     31.340261     31.340261     62.680522
     -3.638639     36.625868     36.625868     73.251737
     -3.628629     41.402612     41.402612     82.805224
     -3.618619     44.801359     44.801359     89.602717
     -3.608609     46.283754     46.283754     92.567508
     -3.598599     45.741644     45.741644     91.483289
     -3.588589     43.450278     43.450278     86.900556
     -3.578579     39.926880     39.926880     79.853760
     -3.568569     35.766756     35.766756     71.533512
     -3.558559     31.506745     31.506745     63.013490
     -3.548549     27.532492     27.532492     55.064985
     -3.538539     24.031059     24.031059     48.062117
     -3.528529     20.994162     20.994162     41.988324
     -3.518519     18.277759     18.277759     36.555519
     -3.508509     15.705573     15.705573     31.411145
     -3.498498     13.178011     13.178011     26.356021
     -3.488488     10.738562     10.738562     21.477124
     -3.478478      8.569379      8.569379     17.138758
     -3.468468      6.923470      6.923470     13.846940
     -3.458458      6.027638      6.027638     12.055276
     -3.448448      5.994389      5.994389     11.988778
     -3.438438      6.769052      6.769052     13.538105
     -3.428428      8.125277      8.125277     16.250554
     -3.418418      9.713954      9.713954     19.427908
     -3.408408     11.161032     11.161032     22.322064
     -3.398398     12.191847     12.191847     24.383694
     -3.388388     12.739459     12.739459     25.478919
     -3.378378     12.989058     12.989058     25.978115
     -3.368368     13.331593     13.331593     26.663185
     -3.358358     14.239697     14.239697     28.479395
     -3.348348     16.113001     16.113001     32.226001
     -3.338338     19.146370     19.146370     38.292741
     -3.328328     23.253267     23.253267     46.506533
     -3.318318     28.048915     28.048915     56.097830
     -3.308308     32.887639     32.887639     65.775278
     -3.298298     36.956992     36.956992     73.913984
     -3.288288     39.435792     39.435792     78.871585
     -3.278278     39.700785     39.700785     79.401570
     -3.268268     37.523188     37.523188     75.046375
     -3.258258     33.168619     33.168619     66.337237
     -3.248248     27.337984     27.337984     54.675969
     -3.238238     20.959978     20.959978     41.919955
     -3.228228     14.921963     14.921963     29.843927
     -3.218218      9.852893      9.852893     19.705787
     -3.208208      6.034188      6.034188     12.068375
     -3.198198      3.443334      3.443334      6.886667
     -3.188188      1.878184      1.878184      3.756368
     -3.178178      1.095119      1.095119      2.190238
     -3.168168      0.915001      0.915001      1.830002
     -3.158158      1.281708      1.281708      2.563417
     -3.148148      2.277151      2.277151      4.554303
     -3.138138      4.098746      4.098746      8.197491
     -3.128128      6.999187      6.999187     13.998373
     -3.118118     11.187522     11.187522     22.375045
     -3.108108     16.703308     16.703308     33.406617
     -3.098098     23.299153     23.299153     46.598305
     -3.088088     30.386667     30.386667     60.773334
     -3.078078     37.097164     37.097164     74.194329
     -3.068068     42.470237     42.470237     84.940474
     -3.058058     45.720937     45.720937     91.441875
     -3.048048     46.483005     46.483005     92.966011
     -3.038038     44.919478     44.919478     89.838955
     -3.028028     41.647148     41.647148     83.294297
     -3.018018     37.510848     37.510848     75.021695
     -3.008008     33.313945     33.313945     66.627891
     -2.997998     29.621307     29.621307     59.242615
     -2.987988     26.700433     26.700433     53.400865
     -2.977978     24.593204     24.593204     49.186408
     -2.967968     23.256384     23.256384     46.512768
     -2.957958     22.692185     22.692185     45.384369
     -2.947948     23.005636     23.005636     46.011272
     -2.937938     24.360998     24.360998     48.721995
     -2.927928     26.855523     26.855523     53.711047
     -2.917918     30.372848     30.372848     60.745695
     -2.907908     34.499353     34.499353     68.998707
     -2.897898     38.566730     38.566730     77.133460
     -2.887888     41.824588     41.824588     83.649176
     -2.877878     43.677288     43.677288     87.354576
     -2.867868     43.878964     43.878964     87.757928
     -2.857858     42.595227     42.595227     85.190454
     -2.847848     40.303043     40.303043     80.606086
     -2.837838     37.578427     37.578427     75.156853
     -2.827828     34.873675     34.873675     69.747350
     -2.817818     32.385742     32.385742     64.771484
     -2.807808     30.066425     30.066425     60.132851
     -2.797798     27.751005     27.751005     55.502010
     -2.787788     25.323846     25.323846     50.647693
     -2.777778     22.827282     22.827282     45.654564
     -2.767768     20.459042     20.459042     40.918084
     -2.757758     18.470952     18.470952     36.941904
     -2.747748     17.038917     17.038917     34.077833
     -2.737738     16.187967     16.187967     32.375935
     -2.727728     15.817901     15.817901     31.635802
     -2.717718     15.807795     15.807795     31.615590
     -2.707708     16.124013     16.124013     32.248026
     -2.697698     16.852231     16.852231     33.704462
     -2.687688     18.124663     18.124663     36.249326
     -2.677678     19.987356     19.987356     39.974712
     -2.667668     22.299390     22.299390     44.598780
     -2.657658     24.741376     24.741376     49.482753
     -2.647648     26.940778     26.940778     53.881556
     -2.637638     28.642003     28.642003     57.284007
     -2.627628     29.815803     29.815803     59.631607
     -2.617618     30.640906     30.640906     61.281811
     -2.607608     31.374967     31.374967     62.749933
     -2.597598     32.200926     32.200926     64.401851
     -2.587588     33.139290     33.139290     66.278580
     -2.577578     34.058622     34.058622     68.117244
     -2.567568     34.746706     34.746706     69.493412
     -2.557558     34.979635     34.979635     69.959270
     -2.547548     34.558149     34.558149     69.116298
     -2.537538     33.330895     33.330895     66.661791
     -2.527528     31.241038     31.241038     62.482076
     -2.517518     28.400234     28.400234     56.800467
     -2.507508     25.145410     25.145410     50.290820
     -2.497497     22.017605     22.017605     44.035210
     -2.487487     19.637559     19.637559     39.275117
     -2.477477     18.515336     18.515336     37.030672
     -2.467467     18.876762     18.876762     37.753523
     -2.457457     20.588900     20.588900     41.177800
     -2.447447     23.222455     23.222455     46.444909
     -2.437437     26.225910     26.225910     52.451819
     -2.427427     29.134996     29.134996     58.269992
     -2.417417     31.724037     31.724037     63.448074
     -2.407407     34.030751     34.030751     68.061502
     -2.397397     36.243296     36.243296     72.486592
     -2.387387     38.503434     38.503434     77.006867
     -2.377377     40.723247     40.723247     81.446494
     -2.367367     42.513338     42.513338     85.026677
     -2.357357     43.273761     43.273761     86.547521
     -2.347347     42.422289     42.422289     84.844579
     -2.337337     39.662963     39.662963     79.325926
     -2.327327     35.170057     35.170057     70.340113
     -2.317317     29.598838     29.598838     59.197676
     -2.307307     23.917726     23.917726     47.835452
     -2.297297     19.138948     19.138948     38.277895
     -2.287287     16.059778     16.059778     32.119555
     -2.277277     15.101335     15.101335     30.202669
     -2.267267     16.273427     16.273427     32.546855
     -2.257257     19.241873     19.241873     38.483746
     -2.247247     23.451330     23.451330     46.902660
     -2.237237     28.258327     28.258327     56.516654
     -2.227227     33.041101     33.041101     66.082203
     -2.217217     37.266966     37.266966     74.533932
     -2.207207     40.515035     40.515035     81.030070
     -2.197197     42.472041     42.472041     84.944082
     -2.187187     42.932162     42.932162     85.864325
     -2.177177     41.824914     41.824914     83.649828
     -2.167167     39.265654     39.265654     78.531308
     -2.157157     35.588791     35.588791     71.177581
     -2.147147     31.313407     31.313407     62.626814
     -2.137137     27.021646     27.021646     54.043292
     -2.127127     23.187286     23.187286     46.374571
     -2.117117     20.035300     20.035300     40.070600
     -2.107107     17.507034     17.507034     35.014067
     -2.097097     15.349094     15.349094     30.698188
     -2.087087     13.274315     13.274315     26.548631
     -2.077077     11.107249     11.107249     22.214498
     -2.067067      8.845803      8.845803     17.691605
     -2.057057      6.626560      6.626560     13.253120
     -2.047047      4.633813      4.633813      9.267627
     -2.037037      3.010724      3.010724      6.021448
     -2.027027      1.812996      1.812996      3.625991
     -2.017017      1.011868      1.011868      2.023737
     -2.007007      0.527981      0.527981      1.055962
     -1.996997      0.271527      0.271527      0.543054
     -1.986987      0.172705      0.172705      0.345410
     -1.976977      0.198660      0.198660      0.397320
     -1.966967      0.360337      0.360337      0.720674
     -1.956957      0.712833      0.712833      1.425666
     -1.946947      1.348605      1.348605      2.697211
     -1.936937      2.379189      2.379189      4.758377
     -1.926927      3.902111      3.902111      7.804223
     -1.916917      5.956849      5.956849     11.913698
     -1.906907      8.483688      8.483688     16.967376
     -1.896897     11.305131     11.305131     22.610261
     -1.886887     14.144578     14.144578     28.289157
     -1.876877     16.681941     16.681941     33.363882
     -1.866867     18.629183     18.629183     37.258366
     -1.856857     19.800902     19.800902     39.601804
     -1.846847     20.158722     20.158722     40.317443
     -1.836837     19.817522     19.817522     39.635043
     -1.826827     19.009663     19.009663     38.019327
     -1.816817     18.011540     18.011540     36.023080
     -1.806807     17.050354     17.050354     34.100708
     -1.796797     16.225872     16.225872     32.451744
     -1.786787     15.487628     15.487628     30.975257
     -1.776777     14.688453     14.688453     29.376906
     -1.766767     13.694285     13.694285     27.388570
     -1.756757     12.493164     12.493164     24.986327
     -1.746747     11.240805     11.240805     22.481611
     -1.736737     10.213127     10.213127     20.426254
     -1.726727      9.687622      9.687622     19.375243
     -1.716717      9.814355      9.814355     19.628710
     -1.706707     10.542592     10.542592     21.085185
     -1.696697     11.639972     11.639972     23.279943
     -1.686687     12.793714     12.793714     25.587428
     -1.676677     13.740873     13.740873     27.481745
     -1.666667     14.359038     14.359038     28.718076
     -1.656657     14.671082     14.671082     29.342165
     -1.646647     14.768331     14.768331     29.536662
     -1.636637     14.706802     14.706802     29.413605
     -1.626627     14.447842     14.447842     28.895683
