# EIG2DOS: Utility for SIESTA to obtain the electronic density of states
#  E. Artacho, Apr 1999, A. Garcia, Apr 2012
#  Nick R. Papior, Feb 2017
# ------------------------------------------
# Eigenvalues calculated from a non-polarized calculation
# Eigenvalues read from siesta.EIG
# Kpoint weights read from siesta.KP
# Using smearing parameter:   0.0500
# Using 1000 points in the energy range
# Selected bands: 1 to: 2981
# Emin, Emax in file for selected band(s):    -27.0574486    218.3210290
# Nbands, Nspin, Nk   =   2981     1     1
# E_F                 =    -4.2922 eV --> (shifted to ZERO)
# Broadening          =     0.0500 eV
#
#        E            N(up)  (=)   N(down)         Ntot
     -5.000000     44.942374     44.942374     89.884748
     -4.989990     49.003152     49.003152     98.006305
     -4.979980     51.514470     51.514470    103.028940
     -4.969970     52.187005     52.187005    104.374009
     -4.959960     51.023802     51.023802    102.047604
     -4.949950     48.305928     48.305928     96.611857
     -4.939940     44.516153     44.516153     89.032305
     -4.929930     40.246814     40.246814     80.493628
     -4.919920     36.132885     36.132885     72.265770
     -4.909910     32.819265     32.819265     65.638531
     -4.899900     30.933375     30.933375     61.866751
     -4.889890     31.015243     31.015243     62.030487
     -4.879880     33.376195     33.376195     66.752391
     -4.869870     37.913775     37.913775     75.827550
     -4.859860     43.975176     43.975176     87.950353
     -4.849850     50.384735     50.384735    100.769469
     -4.839840     55.696624     55.696624    111.393248
     -4.829830     58.616014     58.616014    117.232028
     -4.819820     58.419627     58.419627    116.839254
     -4.809810     55.180722     55.180722    110.361443
     -4.799800     49.693480     49.693480     99.386960
     -4.789790     43.145824     43.145824     86.291649
     -4.779780     36.709152     36.709152     73.418304
     -4.769770     31.226536     31.226536     62.453071
     -4.759760     27.094507     27.094507     54.189014
     -4.749750     24.319100     24.319100     48.638200
     -4.739740     22.658308     22.658308     45.316615
     -4.729730     21.763988     21.763988     43.527976
     -4.719720     21.278461     21.278461     42.556922
     -4.709710     20.883430     20.883430     41.766860
     -4.699700     20.320753     20.320753     40.641506
     -4.689690     19.408147     19.408147     38.816294
     -4.679680     18.065826     18.065826     36.131653
     -4.669670     16.356062     16.356062     32.712124
     -4.659660     14.520495     14.520495     29.040990
     -4.649650     12.988522     12.988522     25.977045
     -4.639640     12.332089     12.332089     24.664178
     -4.629630     13.157257     13.157257     26.314515
     -4.619620     15.943846     15.943846     31.887691
     -4.609610     20.865789     20.865789     41.731579
     -4.599600     27.645088     27.645088     55.290175
     -4.589590     35.505036     35.505036     71.010073
     -4.579580     43.278441     43.278441     86.556882
     -4.569570     49.679812     49.679812     99.359624
     -4.559560     53.675513     53.675513    107.351026
     -4.549550     54.819707     54.819707    109.639415
     -4.539540     53.412359     53.412359    106.824718
     -4.529530     50.398134     50.398134    100.796269
     -4.519520     47.035880     47.035880     94.071759
     -4.509510     44.469908     44.469908     88.939816
     -4.499499     43.373420     43.373420     86.746840
     -4.489489     43.793905     43.793905     87.587809
     -4.479479     45.235864     45.235864     90.471728
     -4.469469     46.917110     46.917110     93.834220
     -4.459459     48.076091     48.076091     96.152182
     -4.449449     48.208652     48.208652     96.417305
     -4.439439     47.163247     47.163247     94.326495
     -4.429429     45.094766     45.094766     90.189532
     -4.419419     42.335386     42.335386     84.670773
     -4.409409     39.261915     39.261915     78.523830
     -4.399399     36.216800     36.216800     72.433600
     -4.389389     33.490752     33.490752     66.981504
     -4.379379     31.331056     31.331056     62.662112
     -4.369369     29.930563     29.930563     59.861125
     -4.359359     29.382663     29.382663     58.765327
     -4.349349     29.631305     29.631305     59.262609
     -4.339339     30.465162     30.465162     60.930324
     -4.329329     31.583248     31.583248     63.166497
     -4.319319     32.711774     32.711774     65.423547
     -4.309309     33.715435     33.715435     67.430870
     -4.299299     34.646297     34.646297     69.292594
     -4.289289     35.705972     35.705972     71.411944
     -4.279279     37.136546     37.136546     74.273091
     -4.269269     39.081029     39.081029     78.162059
     -4.259259     41.462395     41.462395     82.924789
     -4.249249     43.929386     43.929386     87.858771
     -4.239239     45.907451     45.907451     91.814901
     -4.229229     46.763322     46.763322     93.526645
     -4.219219     46.038690     46.038690     92.077380
     -4.209209     43.655718     43.655718     87.311435
     -4.199199     39.986966     39.986966     79.973931
     -4.189189     35.738719     35.738719     71.477438
     -4.179179     31.695135     31.695135     63.390270
     -4.169169     28.448424     28.448424     56.896848
     -4.159159     26.244587     26.244587     52.489173
     -4.149149     25.004157     25.004157     50.008313
     -4.139139     24.481695     24.481695     48.963390
     -4.129129     24.463631     24.463631     48.927262
     -4.119119     24.898186     24.898186     49.796371
     -4.109109     25.894112     25.894112     51.788224
     -4.099099     27.591370     27.591370     55.182740
     -4.089089     29.971714     29.971714     59.943428
     -4.079079     32.716757     32.716757     65.433514
     -4.069069     35.211769     35.211769     70.423537
     -4.059059     36.726269     36.726269     73.452539
     -4.049049     36.702997     36.702997     73.405993
     -4.039039     35.013034     35.013034     70.026067
     -4.029029     32.040718     32.040718     64.081435
     -4.019019     28.552305     28.552305     57.104611
     -4.009009     25.421854     25.421854     50.843709
     -3.998999     23.358297     23.358297     46.716594
     -3.988989     22.756299     22.756299     45.512597
     -3.978979     23.702971     23.702971     47.405942
     -3.968969     26.080669     26.080669     52.161339
     -3.958959     29.673183     29.673183     59.346366
     -3.948949     34.218990     34.218990     68.437980
     -3.938939     39.419909     39.419909     78.839818
     -3.928929     44.951250     44.951250     89.902500
     -3.918919     50.504634     50.504634    101.009268
     -3.908909     55.847165     55.847165    111.694331
     -3.898899     60.845861     60.845861    121.691722
     -3.888889     65.416458     65.416458    130.832916
     -3.878879     69.406560     69.406560    138.813120
     -3.868869     72.479336     72.479336    144.958672
     -3.858859     74.085309     74.085309    148.170617
     -3.848849     73.576623     73.576623    147.153246
     -3.838839     70.443669     70.443669    140.887338
     -3.828829     64.577940     64.577940    129.155879
     -3.818819     56.433444     56.433444    112.866889
     -3.808809     46.995384     46.995384     93.990768
     -3.798799     37.552501     37.552501     75.105003
     -3.788789     29.359343     29.359343     58.718687
     -3.778779     23.317369     23.317369     46.634738
     -3.768769     19.782570     19.782570     39.565141
     -3.758759     18.544480     18.544480     37.088959
     -3.748749     18.956855     18.956855     37.913710
     -3.738739     20.161816     20.161816     40.323633
     -3.728729     21.340169     21.340169     42.680337
     -3.718719     21.928852     21.928852     43.857704
     -3.708709     21.759679     21.759679     43.519358
     -3.698699     21.088160     21.088160     42.176320
     -3.688689     20.500528     20.500528     41.001055
     -3.678679     20.714515     20.714515     41.429030
     -3.668669     22.323005     22.323005     44.646010
     -3.658659     25.558860     25.558860     51.117720
     -3.648649     30.167174     30.167174     60.334349
     -3.638639     35.443263     35.443263     70.886527
     -3.628629     40.432313     40.432313     80.864625
     -3.618619     44.215388     44.215388     88.430777
     -3.608609     46.166716     46.166716     92.333431
     -3.598599     46.086096     46.086096     92.172192
     -3.588589     44.177879     44.177879     88.355758
     -3.578579     40.919655     40.919655     81.839309
     -3.568569     36.895746     36.895746     73.791493
     -3.558559     32.653775     32.653775     65.307550
     -3.548549     28.606203     28.606203     57.212406
     -3.538539     24.977449     24.977449     49.954899
     -3.528529     21.798604     21.798604     43.597208
     -3.518519     18.955691     18.955691     37.911383
     -3.508509     16.284136     16.284136     32.568273
     -3.498498     13.676478     13.676478     27.352957
     -3.488488     11.156441     11.156441     22.312882
     -3.478478      8.886656      8.886656     17.773313
     -3.468468      7.111199      7.111199     14.222398
     -3.458458      6.063221      6.063221     12.126442
     -3.448448      5.875650      5.875650     11.751299
     -3.438438      6.522666      6.522666     13.045332
     -3.428428      7.806402      7.806402     15.612805
     -3.418418      9.395201      9.395201     18.790402
     -3.408408     10.911719     10.911719     21.823438
     -3.398398     12.053009     12.053009     24.106018
     -3.388388     12.703729     12.703729     25.407458
     -3.378378     12.994062     12.994062     25.988123
     -3.368368     13.270347     13.270347     26.540694
     -3.358358     13.984892     13.984892     27.969785
     -3.348348     15.548595     15.548595     31.097190
     -3.338338     18.200853     18.200853     36.401706
     -3.328328     21.930835     21.930835     43.861671
     -3.318318     26.453052     26.453052     52.906104
     -3.308308     31.226045     31.226045     62.452090
     -3.298298     35.514296     35.514296     71.028593
     -3.288288     38.508933     38.508933     77.017866
     -3.278278     39.511679     39.511679     79.023359
     -3.268268     38.142558     38.142558     76.285115
     -3.258258     34.487590     34.487590     68.975180
     -3.248248     29.103903     29.103903     58.207806
     -3.238238     22.860746     22.860746     45.721492
     -3.228228     16.679912     16.679912     33.359824
     -3.218218     11.289227     11.289227     22.578454
     -3.208208      7.085669      7.085669     14.171338
     -3.198198      4.138419      4.138419      8.276839
     -3.188188      2.294941      2.294941      4.589882
     -3.178178      1.323098      1.323098      2.646197
     -3.168168      1.033407      1.033407      2.066814
     -3.158158      1.355263      1.355263      2.710526
     -3.148148      2.364100      2.364100      4.728199
     -3.138138      4.262508      4.262508      8.525016
     -3.128128      7.314337      7.314337     14.628674
     -3.118118     11.731586     11.731586     23.463172
     -3.108108     17.530207     17.530207     35.060413
     -3.098098     24.399612     24.399612     48.799223
     -3.088088     31.652996     31.652996     63.305991
     -3.078078     38.316643     38.316643     76.633285
     -3.068068     43.364332     43.364332     86.728665
     -3.058058     46.025713     46.025713     92.051427
     -3.048048     46.040431     46.040431     92.080862
     -3.038038     43.737518     43.737518     87.475035
     -3.028028     39.899193     39.899193     79.798386
     -3.018018     35.475973     35.475973     70.951946
     -3.008008     31.288821     31.288821     62.577642
     -2.997998     27.843663     27.843663     55.687325
     -2.987988     25.309535     25.309535     50.619071
     -2.977978     23.628022     23.628022     47.256045
     -2.967968     22.675148     22.675148     45.350295
     -2.957958     22.396838     22.396838     44.793676
     -2.947948     22.865649     22.865649     45.731298
     -2.937938     24.240158     24.240158     48.480316
     -2.927928     26.644155     26.644155     53.288309
     -2.917918     30.018894     30.018894     60.037789
     -2.907908     34.024831     34.024831     68.049662
     -2.897898     38.058792     38.058792     76.117584
     -2.887888     41.402046     41.402046     82.804093
     -2.877878     43.445947     43.445947     86.891895
     -2.867868     43.894670     43.894670     87.789339
     -2.857858     42.849367     42.849367     85.698734
     -2.847848     40.734422     40.734422     81.468844
     -2.837838     38.103594     38.103594     76.207189
     -2.827828     35.420275     35.420275     70.840550
     -2.817818     32.913316     32.913316     65.826631
     -2.807808     30.566467     30.566467     61.132934
     -2.797798     28.229497     28.229497     56.458993
     -2.787788     25.778999     25.778999     51.557997
     -2.777778     23.237151     23.237151     46.474302
     -2.767768     20.786497     20.786497     41.572995
     -2.757758     18.681284     18.681284     37.362568
     -2.747748     17.116085     17.116085     34.232170
     -2.737738     16.135791     16.135791     32.271582
     -2.727728     15.643164     15.643164     31.286329
     -2.717718     15.496812     15.496812     30.993625
     -2.707708     15.632472     15.632472     31.264945
     -2.697698     16.122790     16.122790     32.245580
     -2.687688     17.129100     17.129100     34.258200
     -2.677678     18.770494     18.770494     37.540988
     -2.667668     20.994403     20.994403     41.988806
     -2.657658     23.538397     23.538397     47.076795
     -2.647648     26.017929     26.017929     52.035858
     -2.637638     28.093223     28.093223     56.186447
     -2.627628     29.615089     29.615089     59.230179
     -2.617618     30.662308     30.662308     61.324617
     -2.607608     31.454883     31.454883     62.909767
     -2.597598     32.206811     32.206811     64.413622
     -2.587588     33.011820     33.011820     66.023640
     -2.577578     33.817340     33.817340     67.634680
     -2.567568     34.471821     34.471821     68.943641
     -2.557558     34.787766     34.787766     69.575533
     -2.547548     34.578250     34.578250     69.156501
     -2.537538     33.674542     33.674542     67.349085
     -2.527528     31.963349     31.963349     63.926698
     -2.517518     29.462197     29.462197     58.924393
     -2.507508     26.399942     26.399942     52.799884
     -2.497497     23.236507     23.236507     46.473014
     -2.487487     20.575860     20.575860     41.151721
     -2.477477     18.987804     18.987804     37.975608
     -2.467467     18.813488     18.813488     37.626977
     -2.457457     20.047168     20.047168     40.094336
     -2.447447     22.353164     22.353164     44.706328
     -2.437437     25.212864     25.212864     50.425728
     -2.427427     28.134872     28.134872     56.269744
     -2.417417     30.830977     30.830977     61.661954
     -2.407407     33.275585     33.275585     66.551171
     -2.397397     35.621179     35.621179     71.242358
     -2.387387     38.012776     38.012776     76.025552
     -2.377377     40.396685     40.396685     80.793369
     -2.367367     42.426530     42.426530     84.853059
     -2.357357     43.526759     43.526759     87.053518
     -2.347347     43.098971     43.098971     86.197942
     -2.337337     40.784477     40.784477     81.568954
     -2.327327     36.664069     36.664069     73.328138
     -2.317317     31.302006     31.302006     62.604012
     -2.307307     25.613737     25.613737     51.227475
     -2.297297     20.616327     20.616327     41.232655
     -2.287287     17.163900     17.163900     34.327801
     -2.277277     15.759841     15.759841     31.519683
     -2.267267     16.489624     16.489624     32.979248
     -2.257257     19.066659     19.066659     38.133318
     -2.247247     22.952261     22.952261     45.904523
     -2.237237     27.502045     27.502045     55.004090
     -2.227227     32.095348     32.095348     64.190696
     -2.217217     36.216122     36.216122     72.432245
     -2.207207     39.474349     39.474349     78.948698
     -2.197197     41.585004     41.585004     83.170007
     -2.187187     42.344115     42.344115     84.688230
     -2.177177     41.640243     41.640243     83.280486
     -2.167167     39.508179     39.508179     79.016359
     -2.157157     36.187368     36.187368     72.374735
     -2.147147     32.124325     32.124325     64.248649
     -2.137137     27.880722     27.880722     55.761445
     -2.127127     23.968112     23.968112     47.936225
     -2.117117     20.686121     20.686121     41.372242
     -2.107107     18.050371     18.050371     36.100742
     -2.097097     15.848611     15.848611     31.697223
     -2.087087     13.789968     13.789968     27.579936
     -2.077077     11.662830     11.662830     23.325661
     -2.067067      9.422186      9.422186     18.844372
     -2.057057      7.177775      7.177775     14.355549
     -2.047047      5.112091      5.112091     10.224181
     -2.037037      3.385975      3.385975      6.771951
     -2.027027      2.079439      2.079439      4.158877
     -2.017017      1.183146      1.183146      2.366292
     -2.007007      0.626878      0.626878      1.253757
     -1.996997      0.320161      0.320161      0.640322
     -1.986987      0.186074      0.186074      0.372148
     -1.976977      0.181553      0.181553      0.363106
     -1.966967      0.306468      0.306468      0.612936
     -1.956957      0.605603      0.605603      1.211205
     -1.946947      1.164117      1.164117      2.328233
     -1.936937      2.092712      2.092712      4.185423
     -1.926927      3.498221      3.498221      6.996442
     -1.916917      5.440959      5.440959     10.881917
     -1.906907      7.890080      7.890080     15.780160
     -1.896897     10.696020     10.696020     21.392041
     -1.886887     13.597669     13.597669     27.195338
     -1.876877     16.269385     16.269385     32.538771
     -1.866867     18.395647     18.395647     36.791294
     -1.856857     19.749427     19.749427     39.498854
     -1.846847     20.249859     20.249859     40.499718
     -1.836837     19.982074     19.982074     39.964149
     -1.826827     19.171013     19.171013     38.342027
     -1.816817     18.110625     18.110625     36.221249
     -1.806807     17.064365     17.064365     34.128730
     -1.796797     16.171113     16.171113     32.342226
     -1.786787     15.399968     15.399968     30.799936
     -1.776777     14.582865     14.582865     29.165729
     -1.766767     13.516027     13.516027     27.032054
     -1.756757     12.081995     12.081995     24.163990
     -1.746747     10.331437     10.331437     20.662874
     -1.736737      8.487980      8.487980     16.975959
     -1.726727      6.882198      6.882198     13.764397
     -1.716717      5.852769      5.852769     11.705538
     -1.706707      5.656215      5.656215     11.312431
     -1.696697      6.408275      6.408275     12.816549
     -1.686687      8.059731      8.059731     16.119461
     -1.676677     10.401458     10.401458     20.802915
     -1.666667     13.095366     13.095366     26.190733
     -1.656657     15.729263     15.729263     31.458525
     -1.646647     17.888567     17.888567     35.777134
     -1.636637     19.230913     19.230913     38.461827
     -1.626627     19.548405     19.548405     39.096809
