# EIG2DOS: Utility for SIESTA to obtain the electronic density of states
#  E. Artacho, Apr 1999, A. Garcia, Apr 2012
#  Nick R. Papior, Feb 2017
# ------------------------------------------
# Eigenvalues calculated from a non-polarized calculation
# Eigenvalues read from siesta.EIG
# Kpoint weights read from siesta.KP
# Using smearing parameter:   0.0500
# Using 1000 points in the energy range
# Selected bands: 1 to: 2981
# Emin, Emax in file for selected band(s):    -27.0409476    218.3095170
# Nbands, Nspin, Nk   =   2981     1     1
# E_F                 =    -4.2998 eV --> (shifted to ZERO)
# Broadening          =     0.0500 eV
#
#        E            N(up)  (=)   N(down)         Ntot
     -5.000000     44.357434     44.357434     88.714868
     -4.989990     48.786962     48.786962     97.573924
     -4.979980     51.718807     51.718807    103.437614
     -4.969970     52.765853     52.765853    105.531706
     -4.959960     51.849649     51.849649    103.699299
     -4.949950     49.215173     49.215173     98.430345
     -4.939940     45.361621     45.361621     90.723242
     -4.929930     40.934904     40.934904     81.869807
     -4.919920     36.634425     36.634425     73.268850
     -4.909910     33.157689     33.157689     66.315378
     -4.899900     31.162038     31.162038     62.324076
     -4.889890     31.195001     31.195001     62.390002
     -4.879880     33.558550     33.558550     67.117100
     -4.869870     38.129848     38.129848     76.259697
     -4.859860     44.229665     44.229665     88.459330
     -4.849850     50.655674     50.655674    101.311348
     -4.839840     55.942722     55.942722    111.885444
     -4.829830     58.791197     58.791197    117.582393
     -4.819820     58.490247     58.490247    116.980494
     -4.809810     55.138136     55.138136    110.276272
     -4.799800     49.556255     49.556255     99.112510
     -4.789790     42.951146     42.951146     85.902292
     -4.779780     36.498524     36.498524     72.997047
     -4.769770     31.032902     31.032902     62.065803
     -4.759760     26.935734     26.935734     53.871469
     -4.749750     24.198507     24.198507     48.397014
     -4.739740     22.569647     22.569647     45.139295
     -4.729730     21.697442     21.697442     43.394884
     -4.719720     21.225223     21.225223     42.450445
     -4.709710     20.837956     20.837956     41.675912
     -4.699700     20.280791     20.280791     40.561583
     -4.689690     19.373106     19.373106     38.746212
     -4.679680     18.034285     18.034285     36.068570
     -4.669670     16.323437     16.323437     32.646875
     -4.659660     14.478091     14.478091     28.956182
     -4.649650     12.925157     12.925157     25.850314
     -4.639640     12.238950     12.238950     24.477901
     -4.629630     13.035307     13.035307     26.070614
     -4.619620     15.811036     15.811036     31.622072
     -4.609610     20.759548     20.759548     41.519096
     -4.599600     27.615640     27.615640     55.231279
     -4.589590     35.598650     35.598650     71.197300
     -4.579580     43.515815     43.515815     87.031631
     -4.569570     50.039981     50.039981    100.079961
     -4.559560     54.095375     54.095375    108.190751
     -4.549550     55.212123     55.212123    110.424246
     -4.539540     53.695424     53.695424    107.390848
     -4.529530     50.521596     50.521596    101.043193
     -4.519520     46.992305     46.992305     93.984610
     -4.509510     44.286736     44.286736     88.573472
     -4.499499     43.091204     43.091204     86.182407
     -4.489489     43.440174     43.440174     86.880348
     -4.479479     44.802476     44.802476     89.604953
     -4.469469     46.345836     46.345836     92.691671
     -4.459459     47.257007     47.257007     94.514014
     -4.449449     46.998585     46.998585     93.997169
     -4.439439     45.431428     45.431428     90.862856
     -4.429429     42.793384     42.793384     85.586768
     -4.419419     39.573769     39.573769     79.147538
     -4.409409     36.345405     36.345405     72.690810
     -4.399399     33.612088     33.612088     67.224175
     -4.389389     31.707998     31.707998     63.415996
     -4.379379     30.759274     30.759274     61.518549
     -4.369369     30.697733     30.697733     61.395466
     -4.359359     31.308556     31.308556     62.617112
     -4.349349     32.296210     32.296210     64.592420
     -4.339339     33.358552     33.358552     66.717104
     -4.329329     34.260476     34.260476     68.520951
     -4.319319     34.893977     34.893977     69.787955
     -4.309309     35.307352     35.307352     70.614705
     -4.299299     35.689752     35.689752     71.379505
     -4.289289     36.309256     36.309256     72.618512
     -4.279279     37.416257     37.416257     74.832514
     -4.269269     39.133751     39.133751     78.267503
     -4.259259     41.363447     41.363447     82.726894
     -4.249249     43.744285     43.744285     87.488570
     -4.239239     45.700880     45.700880     91.401761
     -4.229229     46.597451     46.597451     93.194902
     -4.219219     45.962318     45.962318     91.924636
     -4.209209     43.692406     43.692406     87.384813
     -4.199199     40.130691     40.130691     80.261382
     -4.189189     35.960229     35.960229     71.920459
     -4.179179     31.955305     31.955305     63.910610
     -4.169169     28.711241     28.711241     57.422483
     -4.159159     26.484021     26.484021     52.968042
     -4.149149     25.204120     25.204120     50.408239
     -4.139139     24.632648     24.632648     49.265297
     -4.129129     24.560318     24.560318     49.120637
     -4.119119     24.940490     24.940490     49.880981
     -4.109109     25.889603     25.889603     51.779206
     -4.099099     27.556298     27.556298     55.112597
     -4.089089     29.928190     29.928190     59.856381
     -4.079079     32.686591     32.686591     65.373183
     -4.069069     35.209947     35.209947     70.419893
     -4.059059     36.757461     36.757461     73.514921
     -4.049049     36.762589     36.762589     73.525178
     -4.039039     35.091327     35.091327     70.182653
     -4.029029     32.127124     32.127124     64.254247
     -4.019019     28.637007     28.637007     57.274013
     -4.009009     25.494801     25.494801     50.989601
     -3.998999     23.407736     23.407736     46.815472
     -3.988989     22.769418     22.769418     45.538836
     -3.978979     23.669409     23.669409     47.338819
     -3.968969     25.997189     25.997189     51.994378
     -3.958959     29.546598     29.546598     59.093195
     -3.948949     34.065346     34.065346     68.130693
     -3.938939     39.260115     39.260115     78.520231
     -3.928929     44.805257     44.805257     89.610514
     -3.918919     50.386768     50.386768    100.773537
     -3.908909     55.764296     55.764296    111.528592
     -3.898899     60.798439     60.798439    121.596878
     -3.888889     65.401067     65.401067    130.802134
     -3.878879     69.418167     69.418167    138.836335
     -3.868869     72.512124     72.512124    145.024247
     -3.858859     74.132361     74.132361    148.264721
     -3.848849     73.629772     73.629772    147.259545
     -3.838839     70.494601     70.494601    140.989201
     -3.828829     64.620363     64.620363    129.240726
     -3.818819     56.464946     56.464946    112.929891
     -3.808809     47.017590     47.017590     94.035180
     -3.798799     37.569398     37.569398     75.138796
     -3.788789     29.374863     29.374863     58.749726
     -3.778779     23.333675     23.333675     46.667349
     -3.768769     19.799720     19.799720     39.599441
     -3.758759     18.561180     18.561180     37.122360
     -3.748749     18.971552     18.971552     37.943103
     -3.738739     20.173549     20.173549     40.347098
     -3.728729     21.349014     21.349014     42.698029
     -3.718719     21.936030     21.936030     43.872061
     -3.708709     21.767376     21.767376     43.534752
     -3.698699     21.099012     21.099012     42.198023
     -3.688689     20.516689     20.516689     41.033378
     -3.678679     20.736432     20.736432     41.472865
     -3.668669     22.348308     22.348308     44.696617
     -3.658659     25.582007     25.582007     51.164014
     -3.648649     30.180392     30.180392     60.360784
     -3.638639     35.438832     35.438832     70.877664
     -3.628629     40.405527     40.405527     80.811054
     -3.618619     44.166991     44.166991     88.333982
     -3.608609     46.103614     46.103614     92.207227
     -3.598599     46.019852     46.019852     92.039704
     -3.588589     44.121432     44.121432     88.242864
     -3.578579     40.883527     40.883527     81.767053
     -3.568569     36.885153     36.885153     73.770306
     -3.558559     32.667607     32.667607     65.335214
     -3.548549     28.638020     28.638020     57.276040
     -3.538539     25.017899     25.017899     50.035797
     -3.528529     21.838272     21.838272     43.676545
     -3.518519     18.987458     18.987458     37.974916
     -3.508509     16.304430     16.304430     32.608860
     -3.498498     13.685313     13.685313     27.370626
     -3.488488     11.156492     11.156492     22.312984
     -3.478478      8.881884      8.881884     17.763768
     -3.468468      7.105516      7.105516     14.211033
     -3.458458      6.059557      6.059557     12.119114
     -3.448448      5.875502      5.875502     11.751004
     -3.438438      6.526081      6.526081     13.052163
     -3.428428      7.812264      7.812264     15.624528
     -3.418418      9.401726      9.401726     18.803451
     -3.408408     10.917099     10.917099     21.834198
     -3.398398     12.056096     12.056096     24.112192
     -3.388388     12.704591     12.704591     25.409182
     -3.378378     12.994237     12.994237     25.988473
     -3.368368     13.272684     13.272684     26.545368
     -3.358358     13.992974     13.992974     27.985949
     -3.348348     15.565820     15.565820     31.131640
     -3.338338     18.229287     18.229287     36.458574
     -3.328328     21.970049     21.970049     43.940097
     -3.318318     26.499310     26.499310     52.998620
     -3.308308     31.272365     31.272365     62.544729
     -3.298298     35.551759     35.551759     71.103518
     -3.288288     38.529132     38.529132     77.058264
     -3.278278     39.509482     39.509482     79.018964
     -3.268268     38.117962     38.117962     76.235924
     -3.258258     34.445736     34.445736     68.891471
     -3.248248     29.053197     29.053197     58.106393
     -3.238238     22.810006     22.810006     45.620012
     -3.228228     16.635822     16.635822     33.271644
     -3.218218     11.254975     11.254975     22.509949
     -3.208208      7.060772      7.060772     14.121544
     -3.198198      4.118872      4.118872      8.237743
     -3.188188      2.272250      2.272250      4.544500
     -3.178178      1.280488      1.280488      2.560976
     -3.168168      0.937381      0.937381      1.874763
     -3.158158      1.141228      1.141228      2.282455
     -3.148148      1.916777      1.916777      3.833555
     -3.138138      3.396450      3.396450      6.792900
     -3.128128      5.766606      5.766606     11.533211
     -3.118118      9.184584      9.184584     18.369168
     -3.108108     13.681413     13.681413     27.362827
     -3.098098     19.080357     19.080357     38.160714
     -3.088088     24.969981     24.969981     49.939963
     -3.078078     30.758680     30.758680     61.517360
     -3.068068     35.803517     35.803517     71.607033
     -3.058058     39.565942     39.565942     79.131885
     -3.048048     41.727717     41.727717     83.455434
     -3.038038     42.220801     42.220801     84.441602
     -3.028028     41.176352     41.176352     82.352704
     -3.018018     38.845299     38.845299     77.690598
     -3.008008     35.550412     35.550412     71.100823
     -2.997998     31.691052     31.691052     63.382103
     -2.987988     27.768251     27.768251     55.536503
     -2.977978     24.373146     24.373146     48.746292
     -2.967968     22.105414     22.105414     44.210829
     -2.957958     21.439900     21.439900     42.879801
     -2.947948     22.598157     22.598157     45.196313
     -2.937938     25.480657     25.480657     50.961313
     -2.927928     29.681474     29.681474     59.362948
     -2.917918     34.569707     34.569707     69.139414
     -2.907908     39.405941     39.405941     78.811883
     -2.897898     43.469292     43.469292     86.938585
     -2.887888     46.182647     46.182647     92.365294
     -2.877878     47.222751     47.222751     94.445502
     -2.867868     46.588229     46.588229     93.176458
     -2.857858     44.591142     44.591142     89.182285
     -2.847848     41.754693     41.754693     83.509387
     -2.837838     38.640304     38.640304     77.280607
     -2.827828     35.668458     35.668458     71.336916
     -2.817818     33.010390     33.010390     66.020779
     -2.807808     30.598359     30.598359     61.196719
     -2.797798     28.243898     28.243898     56.487795
     -2.787788     25.798004     25.798004     51.596008
     -2.777778     23.266865     23.266865     46.533731
     -2.767768     20.823816     20.823816     41.647633
     -2.757758     18.718540     18.718540     37.437079
     -2.747748     17.143859     17.143859     34.287718
     -2.737738     16.144005     16.144005     32.288011
     -2.727728     15.620911     15.620911     31.241821
     -2.717718     15.432099     15.432099     30.864198
     -2.707708     15.513459     15.513459     31.026918
     -2.697698     15.941620     15.941620     31.883239
     -2.687688     16.887879     16.887879     33.775758
     -2.677678     18.486924     18.486924     36.973849
     -2.667668     20.703325     20.703325     41.406649
     -2.657658     23.286379     23.286379     46.572757
     -2.647648     25.851229     25.851229     51.702458
     -2.637638     28.043406     28.043406     56.086812
     -2.627628     29.688656     29.688656     59.377312
     -2.617618     30.839165     30.839165     61.678329
     -2.607608     31.695997     31.695997     63.391993
     -2.597598     32.466946     32.466946     64.933891
     -2.587588     33.251606     33.251606     66.503213
     -2.577578     34.010694     34.010694     68.021387
     -2.567568     34.608003     34.608003     69.216007
     -2.557558     34.869658     34.869658     69.739316
     -2.547548     34.618699     34.618699     69.237399
     -2.537538     33.691838     33.691838     67.383676
     -2.527528     31.976278     31.976278     63.952557
     -2.517518     29.485372     29.485372     58.970743
     -2.507508     26.440490     26.440490     52.880980
     -2.497497     23.293066     23.293066     46.586132
     -2.487487     20.639995     20.639995     41.279990
     -2.477477     19.047060     19.047060     38.094121
     -2.467467     18.854944     18.854944     37.709889
     -2.457457     20.060574     20.060574     40.121148
     -2.447447     22.333196     22.333196     44.666392
     -2.437437     25.160280     25.160280     50.320560
     -2.427427     28.056489     28.056489     56.112977
     -2.417417     30.738570     30.738570     61.477141
     -2.407407     33.184048     33.184048     66.368096
     -2.397397     35.546319     35.546319     71.092639
     -2.387387     37.968921     37.968921     75.937842
     -2.377377     40.394039     40.394039     80.788079
     -2.367367     42.468485     42.468485     84.936970
     -2.357357     43.608001     43.608001     87.216002
     -2.347347     43.205679     43.205679     86.411358
     -2.337337     40.897389     40.897389     81.794779
     -2.327327     36.763738     36.763738     73.527476
     -2.317317     31.374136     31.374136     62.748272
     -2.307307     25.652239     25.652239     51.304478
     -2.297297     20.622929     20.622929     41.245858
     -2.287287     17.145081     17.145081     34.290162
     -2.277277     15.723125     15.723125     31.446250
     -2.267267     16.441206     16.441206     32.882412
     -2.257257     19.011178     19.011178     38.022356
     -2.247247     22.894144     22.894144     45.788288
     -2.237237     27.447052     27.447052     54.894104
     -2.227227     32.051038     32.051038     64.102076
     -2.217217     36.190680     36.190680     72.381360
     -2.207207     39.474173     39.474173     78.948345
     -2.197197     41.612164     41.612164     83.224327
     -2.187187     42.394960     42.394960     84.789921
     -2.177177     41.705978     41.705978     83.411956
     -2.167167     39.577331     39.577331     79.154662
     -2.157157     36.249158     36.249158     72.498317
     -2.147147     32.171526     32.171526     64.343052
     -2.137137     27.910871     27.910871     55.821742
     -2.127127     23.982844     23.982844     47.965687
     -2.117117     20.689304     20.689304     41.378609
     -2.107107     18.046152     18.046152     36.092304
     -2.097097     15.840211     15.840211     31.680421
     -2.087087     13.779449     13.779449     27.558899
     -2.077077     11.651474     11.651474     23.302948
     -2.067067      9.410943      9.410943     18.821885
     -2.057057      7.167474      7.167474     14.334948
     -2.047047      5.103395      5.103395     10.206790
     -2.037037      3.379246      3.379246      6.758493
     -2.027027      2.074684      2.074684      4.149367
     -2.017017      1.180094      1.180094      2.360188
     -2.007007      0.625137      0.625137      1.250274
     -1.996997      0.319382      0.319382      0.638763
     -1.986987      0.186079      0.186079      0.372159
     -1.976977      0.182427      0.182427      0.364855
     -1.966967      0.308615      0.308615      0.617229
     -1.956957      0.609759      0.609759      1.219518
     -1.946947      1.171273      1.171273      2.342546
     -1.936937      2.103881      2.103881      4.207763
     -1.926927      3.514040      3.514040      7.028080
     -1.916917      5.461211      5.461211     10.922421
     -1.906907      7.913358      7.913358     15.826717
     -1.896897     10.719776     10.719776     21.439552
     -1.886887     13.618785     13.618785     27.237571
     -1.876877     16.285170     16.285170     32.570339
     -1.866867     18.404888     18.404888     36.809776
     -1.856857     19.753069     19.753069     39.506138
     -1.846847     20.250952     20.250952     40.501905
     -1.836837     19.984907     19.984907     39.969815
     -1.826827     19.179606     19.179606     38.359212
     -1.816817     18.126997     18.126997     36.253994
     -1.806807     17.087134     17.087134     34.174269
     -1.796797     16.194928     16.194928     32.389855
     -1.786787     15.415831     15.415831     30.831663
     -1.776777     14.578553     14.578553     29.157107
     -1.766767     13.474807     13.474807     26.949613
     -1.756757     11.977494     11.977494     23.954987
     -1.746747     10.117697     10.117697     20.235394
     -1.736737      8.086972      8.086972     16.173945
     -1.726727      6.176037      6.176037     12.352073
     -1.716717      4.692299      4.692299      9.384598
     -1.706707      3.897453      3.897453      7.794905
     -1.696697      3.978843      3.978843      7.957686
     -1.686687      5.038622      5.038622     10.077245
     -1.676677      7.075049      7.075049     14.150098
     -1.666667      9.946135      9.946135     19.892271
     -1.656657     13.334281     13.334281     26.668561
     -1.646647     16.749605     16.749605     33.499211
     -1.636637     19.602876     19.602876     39.205752
     -1.626627     21.345905     21.345905     42.691811
