# EIG2DOS: Utility for SIESTA to obtain the electronic density of states
#  E. Artacho, Apr 1999, A. Garcia, Apr 2012
#  Nick R. Papior, Feb 2017
# ------------------------------------------
# Eigenvalues calculated from a non-polarized calculation
# Eigenvalues read from siesta.EIG
# Kpoint weights read from siesta.KP
# Using smearing parameter:   0.0500
# Using 1000 points in the energy range
# Selected bands: 1 to: 2981
# Emin, Emax in file for selected band(s):    -27.0643451    218.3393900
# Nbands, Nspin, Nk   =   2981     1     1
# E_F                 =    -4.2679 eV --> (shifted to ZERO)
# Broadening          =     0.0500 eV
#
#        E            N(up)  (=)   N(down)         Ntot
     -5.000000     35.481929     35.481929     70.963858
     -4.989990     38.540711     38.540711     77.081423
     -4.979980     41.224630     41.224630     82.449260
     -4.969970     43.021837     43.021837     86.043674
     -4.959960     43.560861     43.560861     87.121723
     -4.949950     42.710278     42.710278     85.420556
     -4.939940     40.616051     40.616051     81.232103
     -4.929930     37.678472     37.678472     75.356944
     -4.919920     34.491139     34.491139     68.982279
     -4.909910     31.763900     31.763900     63.527801
     -4.899900     30.231512     30.231512     60.463025
     -4.889890     30.529648     30.529648     61.059295
     -4.879880     33.025865     33.025865     66.051730
     -4.869870     37.635195     37.635195     75.270390
     -4.859860     43.703773     43.703773     87.407546
     -4.849850     50.061211     50.061211    100.122422
     -4.839840     55.288022     55.288022    110.576043
     -4.829830     58.133517     58.133517    116.267035
     -4.819820     57.918660     57.918660    115.837319
     -4.809810     54.741261     54.741261    109.482521
     -4.799800     49.390992     49.390992     98.781984
     -4.789790     43.027324     43.027324     86.054648
     -4.779780     36.783177     36.783177     73.566354
     -4.769770     31.466405     31.466405     62.932810
     -4.759760     27.448575     27.448575     54.897150
     -4.749750     24.722416     24.722416     49.444832
     -4.739740     23.043820     23.043820     46.087640
     -4.729730     22.073432     22.073432     44.146863
     -4.719720     21.472006     21.472006     42.944011
     -4.709710     20.945464     20.945464     41.890928
     -4.699700     20.259821     20.259821     40.519641
     -4.689690     19.252083     19.252083     38.504166
     -4.679680     17.855872     17.855872     35.711743
     -4.669670     16.143492     16.143492     32.286985
     -4.659660     14.366123     14.366123     28.732245
     -4.649650     12.961658     12.961658     25.923316
     -4.639640     12.503881     12.503881     25.007763
     -4.629630     13.585008     13.585008     27.170017
     -4.619620     16.647639     16.647639     33.295277
     -4.609610     21.805114     21.805114     43.610228
     -4.599600     28.708151     28.708151     57.416302
     -4.589590     36.523226     36.523226     73.046452
     -4.579580     44.070232     44.070232     88.140464
     -4.569570     50.114333     50.114333    100.228666
     -4.559560     53.733527     53.733527    107.467053
     -4.549550     54.627629     54.627629    109.255258
     -4.539540     53.236099     53.236099    106.472197
     -4.529530     50.601481     50.601481    101.202962
     -4.519520     48.021015     48.021015     96.042030
     -4.509510     46.616999     46.616999     93.233998
     -4.499499     46.984091     46.984091     93.968182
     -4.489489     49.031126     49.031126     98.062253
     -4.479479     52.053011     52.053011    104.106021
     -4.469469     54.985258     54.985258    109.970517
     -4.459459     56.741304     56.741304    113.482609
     -4.449449     56.521950     56.521950    113.043901
     -4.439439     54.011390     54.011390    108.022781
     -4.429429     49.421206     49.421206     98.842412
     -4.419419     43.395545     43.395545     86.791089
     -4.409409     36.829304     36.829304     73.658608
     -4.399399     30.662842     30.662842     61.325684
     -4.389389     25.701724     25.701724     51.403448
     -4.379379     22.484660     22.484660     44.969319
     -4.369369     21.207181     21.207181     42.414363
     -4.359359     21.708684     21.708684     43.417368
     -4.349349     23.533332     23.533332     47.066664
     -4.339339     26.063769     26.063769     52.127539
     -4.329329     28.698781     28.698781     57.397561
     -4.319319     31.019560     31.019560     62.039120
     -4.309309     32.885930     32.885930     65.771861
     -4.299299     34.429525     34.429525     68.859049
     -4.289289     35.950701     35.950701     71.901401
     -4.279279     37.757896     37.757896     75.515793
     -4.269269     40.001788     40.001788     80.003575
     -4.259259     42.556841     42.556841     85.113682
     -4.249249     44.996485     44.996485     89.992969
     -4.239239     46.690533     46.690533     93.381067
     -4.229229     47.014045     47.014045     94.028091
     -4.219219     45.599797     45.599797     91.199595
     -4.209209     42.523393     42.523393     85.046786
     -4.199199     38.320662     38.320662     76.641324
     -4.189189     33.812367     33.812367     67.624734
     -4.179179     29.812943     29.812943     59.625886
     -4.169169     26.863104     26.863104     53.726207
     -4.159159     25.108947     25.108947     50.217894
     -4.149149     24.366185     24.366185     48.732371
     -4.139139     24.312425     24.312425     48.624849
     -4.129129     24.696168     24.696168     49.392336
     -4.119119     25.457184     25.457184     50.914369
     -4.109109     26.704292     26.704292     53.408584
     -4.099099     28.566603     28.566603     57.133206
     -4.089089     30.997695     30.997695     61.995391
     -4.079079     33.645056     33.645056     67.290112
     -4.069069     35.877588     35.877588     71.755175
     -4.059059     36.988223     36.988223     73.976445
     -4.049049     36.488503     36.488503     72.977007
     -4.039039     34.347310     34.347310     68.694621
     -4.029029     31.045028     31.045028     62.090055
     -4.019019     27.412959     27.412959     54.825918
     -4.009009     24.344694     24.344694     48.689389
     -3.998999     22.526206     22.526206     45.052413
     -3.988989     22.300465     22.300465     44.600929
     -3.978979     23.689501     23.689501     47.379001
     -3.968969     26.509429     26.509429     53.018857
     -3.958959     30.486388     30.486388     60.972775
     -3.948949     35.319030     35.319030     70.638060
     -3.938939     40.694962     40.694962     81.389924
     -3.928929     46.302915     46.302915     92.605831
     -3.918919     51.867534     51.867534    103.735069
     -3.908909     57.190613     57.190613    114.381226
     -3.898899     62.154350     62.154350    124.308700
     -3.888889     66.656751     66.656751    133.313501
     -3.878879     70.498777     70.498777    140.997553
     -3.868869     73.291211     73.291211    146.582422
     -3.858859     74.459595     74.459595    148.919189
     -3.848849     73.384746     73.384746    146.769492
     -3.838839     69.643089     69.643089    139.286177
     -3.828829     63.245860     63.245860    126.491720
     -3.818819     54.759342     54.759342    109.518683
     -3.808809     45.234059     45.234059     90.468118
     -3.798799     35.956946     35.956946     71.913892
     -3.788789     28.119230     28.119230     56.238460
     -3.778779     22.522726     22.522726     45.045452
     -3.768769     19.419102     19.419102     38.838204
     -3.758759     18.515203     18.515203     37.030407
     -3.748749     19.119032     19.119032     38.238064
     -3.738739     20.368073     20.368073     40.736145
     -3.728729     21.475119     21.475119     42.950238
     -3.718719     21.934877     21.934877     43.869755
     -3.708709     21.647288     21.647288     43.294576
     -3.698699     20.928510     20.928510     41.857019
     -3.688689     20.401014     20.401014     40.802028
     -3.678679     20.782856     20.782856     41.565712
     -3.668669     22.629628     22.629628     45.259257
     -3.658659     26.109654     26.109654     52.219307
     -3.648649     30.896631     30.896631     61.793262
     -3.638639     36.231187     36.231187     72.462373
     -3.628629     41.137825     41.137825     82.275650
     -3.618619     44.714803     44.714803     89.429607
     -3.608609     46.381277     46.381277     92.762555
     -3.598599     45.992147     45.992147     91.984294
     -3.588589     43.801141     43.801141     87.602281
     -3.578579     40.320983     40.320983     80.641966
     -3.568569     36.155228     36.155228     72.310457
     -3.558559     31.856033     31.856033     63.712066
     -3.548549     27.827008     27.827008     55.654016
     -3.538539     24.272437     24.272437     48.544873
     -3.528529     21.196937     21.196937     42.393874
     -3.518519     18.461458     18.461458     36.922915
     -3.508509     15.885103     15.885103     31.770207
     -3.498498     13.355979     13.355979     26.711958
     -3.488488     10.902795     10.902795     21.805589
     -3.478478      8.696601      8.696601     17.393202
     -3.468468      6.987432      6.987432     13.974864
     -3.458458      6.008748      6.008748     12.017496
     -3.448448      5.888129      5.888129     11.776257
     -3.438438      6.591043      6.591043     13.182086
     -3.428428      7.911119      7.911119     15.822239
     -3.418418      9.512422      9.512422     19.024843
     -3.408408     11.020933     11.020933     22.041867
     -3.398398     12.145797     12.145797     24.291595
     -3.388388     12.790150     12.790150     25.580300
     -3.378378     13.103400     13.103400     26.206799
     -3.368368     13.445154     13.445154     26.890308
     -3.358358     14.270187     14.270187     28.540375
     -3.348348     15.979642     15.979642     31.959284
     -3.338338     18.792062     18.792062     37.584124
     -3.328328     22.666384     22.666384     45.332769
     -3.318318     27.279499     27.279499     54.558998
     -3.308308     32.049783     32.049783     64.099566
     -3.298298     36.209841     36.209841     72.419683
     -3.288288     38.942958     38.942958     77.885916
     -3.278278     39.580036     39.580036     79.160073
     -3.268268     37.807112     37.807112     75.614224
     -3.258258     33.794828     33.794828     67.589656
     -3.248248     28.173748     28.173748     56.347497
     -3.238238     21.849068     21.849068     43.698135
     -3.228228     15.731867     15.731867     31.463735
     -3.218218     10.503766     10.503766     21.007532
     -3.208208      6.503167      6.503167     13.006334
     -3.198198      3.750369      3.750369      7.500738
     -3.188188      2.065451      2.065451      4.130902
     -3.178178      1.210425      1.210425      2.420849
     -3.168168      1.003948      1.003948      2.007897
     -3.158158      1.387893      1.387893      2.775785
     -3.148148      2.446436      2.446436      4.892872
     -3.138138      4.382511      4.382511      8.765022
     -3.128128      7.451627      7.451627     14.903254
     -3.118118     11.853630     11.853630     23.707260
     -3.108108     17.597813     17.597813     35.195626
     -3.098098     24.382500     24.382500     48.765000
     -3.088088     31.549966     31.549966     63.099931
     -3.078078     38.169572     38.169572     76.339144
     -3.068068     43.255589     43.255589     86.511177
     -3.058058     46.056235     46.056235     92.112470
     -3.048048     46.296734     46.296734     92.593468
     -3.038038     44.262636     44.262636     88.525272
     -3.028028     40.679949     40.679949     81.359898
     -3.018018     36.448912     36.448912     72.897824
     -3.008008     32.357340     32.357340     64.714679
     -2.997998     28.896549     28.896549     57.793098
     -2.987988     26.236791     26.236791     52.473582
     -2.977978     24.336847     24.336847     48.673694
     -2.967968     23.109637     23.109637     46.219275
     -2.957958     22.557680     22.557680     45.115360
     -2.947948     22.817899     22.817899     45.635798
     -2.937938     24.097463     24.097463     48.194925
     -2.927928     26.529506     26.529506     53.059011
     -2.917918     30.017698     30.017698     60.035396
     -2.907908     34.153611     34.153611     68.307223
     -2.897898     38.265669     38.265669     76.531338
     -2.887888     41.597719     41.597719     83.195439
     -2.877878     43.547809     43.547809     87.095618
     -2.867868     43.861433     43.861433     87.722866
     -2.857858     42.690828     42.690828     85.381656
     -2.847848     40.495053     40.495053     80.990106
     -2.837838     37.831578     37.831578     75.663156
     -2.827828     35.139493     35.139493     70.278987
     -2.817818     32.612778     32.612778     65.225555
     -2.807808     30.211729     30.211729     60.423457
     -2.797798     27.788743     27.788743     55.577486
     -2.787788     25.248698     25.248698     50.497396
     -2.777778     22.652834     22.652834     45.305668
     -2.767768     20.213113     20.213113     40.426226
     -2.757758     18.189722     18.189722     36.379445
     -2.747748     16.760538     16.760538     33.521077
     -2.737738     15.945495     15.945495     31.890989
     -2.727728     15.631997     15.631997     31.263994
     -2.717718     15.681353     15.681353     31.362706
     -2.707708     16.041797     16.041797     32.083594
     -2.697698     16.787258     16.787258     33.574516
     -2.687688     18.049484     18.049484     36.098967
     -2.677678     19.884824     19.884824     39.769647
     -2.667668     22.166855     22.166855     44.333709
     -2.657658     24.585660     24.585660     49.171320
     -2.647648     26.767095     26.767095     53.534190
     -2.637638     28.444354     28.444354     56.888707
     -2.627628     29.575987     29.575987     59.151975
     -2.617618     30.337938     30.337938     60.675876
     -2.607608     30.999729     30.999729     61.999458
     -2.597598     31.767294     31.767294     63.534589
     -2.587588     32.685363     32.685363     65.370726
     -2.577578     33.638183     33.638183     67.276365
     -2.567568     34.416532     34.416532     68.833064
     -2.557558     34.788591     34.788591     69.577183
     -2.547548     34.539797     34.539797     69.079595
     -2.537538     33.497328     33.497328     66.994657
     -2.527528     31.576063     31.576063     63.152127
     -2.517518     28.854397     28.854397     57.708793
     -2.507508     25.638904     25.638904     51.277808
     -2.497497     22.455473     22.455473     44.910946
     -2.487487     19.934958     19.934958     39.869917
     -2.477477     18.623668     18.623668     37.247336
     -2.467467     18.799216     18.799216     37.598431
     -2.457457     20.378166     20.378166     40.756332
     -2.447447     22.961494     22.961494     45.922988
     -2.437437     26.000224     26.000224     52.000448
     -2.427427     29.007689     29.007689     58.015377
     -2.417417     31.722115     31.722115     63.444229
     -2.407407     34.144801     34.144801     68.289602
     -2.397397     36.437222     36.437222     72.874445
     -2.387387     38.729154     38.729154     77.458308
     -2.377377     40.936459     40.936459     81.872918
     -2.367367     42.687526     42.687526     85.375053
     -2.357357     43.408874     43.408874     86.817748
     -2.347347     42.543893     42.543893     85.087786
     -2.337337     39.810316     39.810316     79.620631
     -2.327327     35.377501     35.377501     70.755003
     -2.317317     29.879760     29.879760     59.759520
     -2.307307     24.259431     24.259431     48.518862
     -2.297297     19.510100     19.510100     39.020200
     -2.287287     16.424450     16.424450     32.848900
     -2.277277     15.430862     15.430862     30.861725
     -2.267267     16.550438     16.550438     33.100875
     -2.257257     19.456908     19.456908     38.913815
     -2.247247     23.596841     23.596841     47.193683
     -2.237237     28.325288     28.325288     56.650576
     -2.227227     33.020783     33.020783     66.041566
     -2.217217     37.156821     37.156821     74.313642
     -2.207207     40.325072     40.325072     80.650145
     -2.197197     42.227546     42.227546     84.455093
     -2.187187     42.670187     42.670187     85.340375
     -2.177177     41.584993     41.584993     83.169987
     -2.167167     39.078406     39.078406     78.156811
     -2.157157     35.467668     35.467668     70.935337
     -2.147147     31.253690     31.253690     62.507381
     -2.137137     27.007039     27.007039     54.014077
     -2.127127     23.200327     23.200327     46.400654
     -2.117117     20.065801     20.065801     40.131601
     -2.107107     17.554312     17.554312     35.108625
     -2.097097     15.417828     15.417828     30.835657
     -2.087087     13.367598     13.367598     26.735197
     -2.077077     11.221536     11.221536     22.443071
     -2.067067      8.970479      8.970479     17.940958
     -2.057057      6.747625      6.747625     13.495250
     -2.047047      4.738920      4.738920      9.477841
     -2.037037      3.092724      3.092724      6.185447
     -2.027027      1.870678      1.870678      3.741355
     -2.017017      1.048344      1.048344      2.096688
     -2.007007      0.548041      0.548041      1.096082
     -1.996997      0.279134      0.279134      0.558268
     -1.986987      0.169103      0.169103      0.338205
     -1.976977      0.181022      0.181022      0.362045
     -1.966967      0.320897      0.320897      0.641794
     -1.956957      0.638858      0.638858      1.277716
     -1.946947      1.224154      1.224154      2.448308
     -1.936937      2.189602      2.189602      4.379205
     -1.926927      3.641181      3.641181      7.282363
     -1.916917      5.634621      5.634621     11.269243
     -1.906907      8.130950      8.130950     16.261901
     -1.896897     10.970427     10.970427     21.940853
     -1.886887     13.882221     13.882221     27.764443
     -1.876877     16.534169     16.534169     33.068337
     -1.866867     18.609606     18.609606     37.219212
     -1.856857     19.886954     19.886954     39.773908
     -1.846847     20.297274     20.297274     40.594548
     -1.836837     19.942267     19.942267     39.884534
     -1.826827     19.064433     19.064433     38.128865
     -1.816817     17.972116     17.972116     35.944233
     -1.806807     16.938393     16.938393     33.876785
     -1.796797     16.111170     16.111170     32.222340
     -1.786787     15.478461     15.478461     30.956922
     -1.776777     14.913045     14.913045     29.826091
     -1.766767     14.277960     14.277960     28.555921
     -1.756757     13.533963     13.533963     27.067926
     -1.746747     12.782939     12.782939     25.565879
     -1.736737     12.217423     12.217423     24.434845
     -1.726727     12.004898     12.004898     24.009796
     -1.716717     12.178220     12.178220     24.356441
     -1.706707     12.601765     12.601765     25.203530
     -1.696697     13.037177     13.037177     26.074354
     -1.686687     13.271155     13.271155     26.542311
     -1.676677     13.228593     13.228593     26.457186
     -1.666667     13.002111     13.002111     26.004222
     -1.656657     12.779407     12.779407     25.558814
     -1.646647     12.712310     12.712310     25.424619
     -1.636637     12.807462     12.807462     25.614923
     -1.626627     12.906087     12.906087     25.812174
