# EIG2DOS: Utility for SIESTA to obtain the electronic density of states
#  E. Artacho, Apr 1999, A. Garcia, Apr 2012
#  Nick R. Papior, Feb 2017
# ------------------------------------------
# Eigenvalues calculated from a non-polarized calculation
# Eigenvalues read from siesta.EIG
# Kpoint weights read from siesta.KP
# Using smearing parameter:   0.0500
# Using 1000 points in the energy range
# Selected bands: 1 to: 2981
# Emin, Emax in file for selected band(s):    -27.0561272    218.3162530
# Nbands, Nspin, Nk   =   2981     1     1
# E_F                 =    -4.2974 eV --> (shifted to ZERO)
# Broadening          =     0.0500 eV
#
#        E            N(up)  (=)   N(down)         Ntot
     -5.000000     42.862334     42.862334     85.724669
     -4.989990     47.606941     47.606941     95.213883
     -4.979980     51.051612     51.051612    102.103224
     -4.969970     52.718021     52.718021    105.436043
     -4.959960     52.404279     52.404279    104.808557
     -4.949950     50.240604     50.240604    100.481208
     -4.939940     46.653533     46.653533     93.307067
     -4.929930     42.269476     42.269476     84.538952
     -4.919920     37.810090     37.810090     75.620179
     -4.909910     34.015718     34.015718     68.031436
     -4.899900     31.592044     31.592044     63.184087
     -4.889890     31.139613     31.139613     62.279226
     -4.879880     33.027034     33.027034     66.054067
     -4.869870     37.216573     37.216573     74.433146
     -4.859860     43.120289     43.120289     86.240577
     -4.849850     49.602520     49.602520     99.205041
     -4.839840     55.205064     55.205064    110.410128
     -4.829830     58.558573     58.558573    117.117145
     -4.819820     58.822286     58.822286    117.644572
     -4.809810     55.950379     55.950379    111.900758
     -4.799800     50.658891     50.658891    101.317782
     -4.789790     44.120823     44.120823     88.241645
     -4.779780     37.549600     37.549600     75.099200
     -4.769770     31.860766     31.860766     63.721533
     -4.759760     27.523640     27.523640     55.047279
     -4.749750     24.596690     24.596690     49.193380
     -4.739740     22.862207     22.862207     45.724414
     -4.729730     21.969635     21.969635     43.939270
     -4.719720     21.538329     21.538329     43.076658
     -4.709710     21.215348     21.215348     42.430695
     -4.699700     20.706863     20.706863     41.413726
     -4.689690     19.803745     19.803745     39.607490
     -4.679680     18.413374     18.413374     36.826749
     -4.669670     16.597261     16.597261     33.194521
     -4.659660     14.601153     14.601153     29.202305
     -4.649650     12.856658     12.856658     25.713315
     -4.639640     11.935792     11.935792     23.871585
     -4.629630     12.451156     12.451156     24.902312
     -4.619620     14.909116     14.909116     29.818231
     -4.609610     19.539404     19.539404     39.078809
     -4.599600     26.143809     26.143809     52.287619
     -4.589590     34.025294     34.025294     68.050587
     -4.579580     42.060093     42.060093     84.120186
     -4.569570     48.939182     48.939182     97.878365
     -4.559560     53.532352     53.532352    107.064704
     -4.549550     55.251348     55.251348    110.502695
     -4.539540     54.258661     54.258661    108.517323
     -4.529530     51.416791     51.416791    102.833581
     -4.519520     47.983133     47.983133     95.966265
     -4.509510     45.171108     45.171108     90.342216
     -4.499499     43.756087     43.756087     87.512174
     -4.489489     43.876489     43.876489     87.752979
     -4.479479     45.085686     45.085686     90.171371
     -4.469469     46.601424     46.601424     93.202848
     -4.459459     47.628749     47.628749     95.257497
     -4.449449     47.625194     47.625194     95.250387
     -4.439439     46.424659     46.424659     92.849318
     -4.429429     44.208031     44.208031     88.416063
     -4.419419     41.370145     41.370145     82.740290
     -4.409409     38.360952     38.360952     76.721904
     -4.399399     35.567537     35.567537     71.135074
     -4.389389     33.264301     33.264301     66.528602
     -4.379379     31.615282     31.615282     63.230565
     -4.369369     30.690610     30.690610     61.381220
     -4.359359     30.469419     30.469419     60.938839
     -4.349349     30.832355     30.832355     61.664709
     -4.339339     31.570883     31.570883     63.141765
     -4.329329     32.437059     32.437059     64.874119
     -4.319319     33.228405     33.228405     66.456811
     -4.309309     33.871833     33.871833     67.743665
     -4.299299     34.462171     34.462171     68.924342
     -4.289289     35.229628     35.229628     70.459255
     -4.279279     36.441467     36.441467     72.882934
     -4.269269     38.268550     38.268550     76.537100
     -4.259259     40.661258     40.661258     81.322515
     -4.249249     43.284426     43.284426     86.568852
     -4.239239     45.554957     45.554957     91.109914
     -4.229229     46.797686     46.797686     93.595372
     -4.219219     46.481631     46.481631     92.963262
     -4.209209     44.442276     44.442276     88.884553
     -4.199199     40.978273     40.978273     81.956545
     -4.189189     36.760362     36.760362     73.520724
     -4.179179     32.587299     32.587299     65.174598
     -4.169169     29.107653     29.107653     58.215306
     -4.159159     26.641136     26.641136     53.282273
     -4.149149     25.170721     25.170721     50.341443
     -4.139139     24.481753     24.481753     48.963506
     -4.129129     24.355047     24.355047     48.710095
     -4.119119     24.708303     24.708303     49.416607
     -4.109109     25.617261     25.617261     51.234523
     -4.099099     27.209977     27.209977     54.419954
     -4.089089     29.490379     29.490379     58.980757
     -4.079079     32.189728     32.189728     64.379456
     -4.069069     34.744631     34.744631     69.489262
     -4.059059     36.445159     36.445159     72.890319
     -4.049049     36.703862     36.703862     73.407724
     -4.039039     35.317324     35.317324     70.634649
     -4.029029     32.582004     32.582004     65.164009
     -4.019019     29.200849     29.200849     58.401697
     -4.009009     26.032515     26.032515     52.065030
     -3.998999     23.815926     23.815926     47.631852
     -3.988989     22.998366     22.998366     45.996731
     -3.978979     23.715869     23.715869     47.431738
     -3.968969     25.881188     25.881188     51.762376
     -3.958959     29.290550     29.290550     58.581100
     -3.948949     33.685746     33.685746     67.371492
     -3.938939     38.769742     38.769742     77.539483
     -3.928929     44.217334     44.217334     88.434668
     -3.918919     49.715485     49.715485     99.430971
     -3.908909     55.023812     55.023812    110.047624
     -3.898899     60.006969     60.006969    120.013938
     -3.888889     64.593396     64.593396    129.186793
     -3.878879     68.661270     68.661270    137.322540
     -3.868869     71.911512     71.911512    143.823025
     -3.858859     73.817779     73.817779    147.635558
     -3.848849     73.718933     73.718933    147.437866
     -3.838839     71.047393     71.047393    142.094786
     -3.828829     65.604501     65.604501    131.209003
     -3.818819     57.751146     57.751146    115.502293
     -3.808809     48.409064     48.409064     96.818128
     -3.798799     38.854488     38.854488     77.708977
     -3.788789     30.382307     30.382307     60.764614
     -3.778779     23.971367     23.971367     47.942733
     -3.768769     20.067158     20.067158     40.134316
     -3.758759     18.536412     18.536412     37.072824
     -3.748749     18.780375     18.780375     37.560749
     -3.738739     19.950983     19.950983     39.901966
     -3.728729     21.202525     21.202525     42.405050
     -3.718719     21.918440     21.918440     43.836880
     -3.708709     21.865379     21.865379     43.730759
     -3.698699     21.240340     21.240340     42.480680
     -3.688689     20.594890     20.594890     41.189781
     -3.678679     20.647358     20.647358     41.294717
     -3.668669     22.027851     22.027851     44.055702
     -3.658659     25.032426     25.032426     50.064851
     -3.648649     29.474805     29.474805     58.949610
     -3.638639     34.700955     34.700955     69.401909
     -3.628629     39.772112     39.772112     79.544225
     -3.618619     43.748335     43.748335     87.496669
     -3.608609     45.957713     45.957713     91.915426
     -3.598599     46.147738     46.147738     92.295475
     -3.588589     44.480074     44.480074     88.960149
     -3.578579     41.405947     41.405947     82.811893
     -3.568569     37.498465     37.498465     74.996930
     -3.558559     33.305668     33.305668     66.611337
     -3.548549     29.249957     29.249957     58.499913
     -3.538539     25.573706     25.573706     51.147412
     -3.528529     22.330021     22.330021     44.660042
     -3.518519     19.423794     19.423794     38.847588
     -3.508509     16.698976     16.698976     33.397952
     -3.498498     14.043710     14.043710     28.087419
     -3.488488     11.468327     11.468327     22.936653
     -3.478478      9.121214      9.121214     18.242427
     -3.468468      7.239371      7.239371     14.478742
     -3.458458      6.060757      6.060757     12.121514
     -3.448448      5.735528      5.735528     11.471055
     -3.438438      6.264271      6.264271     12.528542
     -3.428428      7.477950      7.477950     14.955901
     -3.418418      9.066481      9.066481     18.132963
     -3.408408     10.656673     10.656673     21.313346
     -3.398398     11.926228     11.926228     23.852455
     -3.388388     12.719270     12.719270     25.438541
     -3.378378     13.115550     13.115550     26.231099
     -3.368368     13.416847     13.416847     26.833694
     -3.358358     14.050315     14.050315     28.100630
     -3.348348     15.427959     15.427959     30.855917
     -3.338338     17.817030     17.817030     35.634060
     -3.328328     21.258224     21.258224     42.516448
     -3.318318     25.535447     25.535447     51.070893
     -3.308308     30.183091     30.183091     60.366183
     -3.298298     34.527983     34.527983     69.055966
     -3.288288     37.784888     37.784888     75.569776
     -3.278278     39.221753     39.221753     78.443506
     -3.268268     38.369032     38.369032     76.738064
     -3.258258     35.194375     35.194375     70.388750
     -3.248248     30.149801     30.149801     60.299601
     -3.238238     24.049156     24.049156     48.098312
     -3.228228     17.821510     17.821510     35.643020
     -3.218218     12.250444     12.250444     24.500888
     -3.208208      7.807010      7.807010     15.614021
     -3.198198      4.623560      4.623560      9.247119
     -3.188188      2.583269      2.583269      5.166537
     -3.178178      1.460095      1.460095      2.920189
     -3.168168      1.047702      1.047702      2.095404
     -3.158158      1.244599      1.244599      2.489197
     -3.148148      2.089430      2.089430      4.178861
     -3.138138      3.750862      3.750862      7.501723
     -3.128128      6.474056      6.474056     12.948112
     -3.118118     10.483843     10.483843     20.967687
     -3.108108     15.854793     15.854793     31.709586
     -3.098098     22.381518     22.381518     44.763037
     -3.088088     29.505600     29.505600     59.011200
     -3.078078     36.357335     36.357335     72.714670
     -3.068068     41.935500     41.935500     83.871001
     -3.058058     45.383066     45.383066     90.766133
     -3.048048     46.254817     46.254817     92.509634
     -3.038038     44.657599     44.657599     89.315198
     -3.028028     41.196262     41.196262     82.392523
     -3.018018     36.753497     36.753497     73.506993
     -3.008008     32.211154     32.211154     64.422307
     -2.997998     28.234841     28.234841     56.469683
     -2.987988     25.190811     25.190811     50.381622
     -2.977978     23.188040     23.188040     46.376081
     -2.967968     22.188456     22.188456     44.376912
     -2.957958     22.121059     22.121059     44.242118
     -2.947948     22.954189     22.954189     45.908378
     -2.937938     24.702243     24.702243     49.404486
     -2.927928     27.365024     27.365024     54.730049
     -2.917918     30.826063     30.826063     61.652127
     -2.907908     34.765791     34.765791     69.531581
     -2.897898     38.653937     38.653937     77.307873
     -2.887888     41.854272     41.854272     83.708544
     -2.877878     43.812926     43.812926     87.625852
     -2.867868     44.246098     44.246098     88.492195
     -2.857858     43.232473     43.232473     86.464945
     -2.847848     41.160295     41.160295     82.320589
     -2.837838     38.553493     38.553493     77.106986
     -2.827828     35.862288     35.862288     71.724577
     -2.817818     33.318114     33.318114     66.636228
     -2.807808     30.914906     30.914906     61.829812
     -2.797798     28.511247     28.511247     57.022493
     -2.787788     25.986770     25.986770     51.973540
     -2.777778     23.362897     23.362897     46.725794
     -2.767768     20.823445     20.823445     41.646890
     -2.757758     18.630324     18.630324     37.260649
     -2.747748     16.990445     16.990445     33.980891
     -2.737738     15.957516     15.957516     31.915031
     -2.727728     15.429917     15.429917     30.859835
     -2.717718     15.245365     15.245365     30.490731
     -2.707708     15.310613     15.310613     30.621226
     -2.697698     15.679487     15.679487     31.358973
     -2.687688     16.522908     16.522908     33.045815
     -2.677678     18.003417     18.003417     36.006834
     -2.667668     20.131153     20.131153     40.262307
     -2.657658     22.695659     22.695659     45.391318
     -2.647648     25.324150     25.324150     50.648300
     -2.637638     27.637648     27.637648     55.275296
     -2.627628     29.412977     29.412977     58.825954
     -2.617618     30.654823     30.654823     61.309647
     -2.607608     31.541763     31.541763     63.083526
     -2.597598     32.291635     32.291635     64.583269
     -2.587588     33.036022     33.036022     66.072045
     -2.577578     33.771094     33.771094     67.542189
     -2.567568     34.386351     34.386351     68.772703
     -2.557558     34.721189     34.721189     69.442378
     -2.547548     34.601987     34.601987     69.203975
     -2.537538     33.857999     33.857999     67.715997
     -2.527528     32.352174     32.352174     64.704348
     -2.517518     30.053091     30.053091     60.106181
     -2.507508     27.124694     27.124694     54.249387
     -2.497497     23.969148     23.969148     47.938296
     -2.487487     21.166400     21.166400     42.332799
     -2.477477     19.310864     19.310864     38.621728
     -2.467467     18.810889     18.810889     37.621779
     -2.457457     19.745795     19.745795     39.491589
     -2.447447     21.851246     21.851246     43.702491
     -2.437437     24.642109     24.642109     49.284217
     -2.427427     27.615666     27.615666     55.231333
     -2.417417     30.439123     30.439123     60.878246
     -2.407407     33.032039     33.032039     66.064077
     -2.397397     35.505054     35.505054     71.010109
     -2.387387     37.988175     37.988175     75.976351
     -2.377377     40.439858     40.439858     80.879716
     -2.367367     42.541923     42.541923     85.083846
     -2.357357     43.746249     43.746249     87.492498
     -2.347347     43.465354     43.465354     86.930707
     -2.337337     41.326477     41.326477     82.652954
     -2.327327     37.374109     37.374109     74.748217
     -2.317317     32.127475     32.127475     64.254949
     -2.307307     26.466457     26.466457     52.932913
     -2.297297     21.395810     21.395810     42.791620
     -2.287287     17.783333     17.783333     35.566666
     -2.277277     16.163724     16.163724     32.327448
     -2.267267     16.658139     16.658139     33.316278
     -2.257257     19.009420     19.009420     38.018840
     -2.247247     22.698285     22.698285     45.396570
     -2.237237     27.092075     27.092075     54.184151
     -2.227227     31.578939     31.578939     63.157878
     -2.217217     35.651976     35.651976     71.303952
     -2.207207     38.930140     38.930140     77.860280
     -2.197197     41.132786     41.132786     82.265571
     -2.187187     42.049341     42.049341     84.098682
     -2.177177     41.546086     41.546086     83.092173
     -2.167167     39.620976     39.620976     79.241952
     -2.157157     36.471153     36.471153     72.942305
     -2.147147     32.510127     32.510127     65.020254
     -2.137137     28.289433     28.289433     56.578867
     -2.127127     24.337812     24.337812     48.675624
     -2.117117     20.991067     20.991067     41.982135
     -2.107107     18.302613     18.302613     36.605226
     -2.097097     16.082563     16.082563     32.165125
     -2.087087     14.039384     14.039384     28.078768
     -2.077077     11.942671     11.942671     23.885343
     -2.067067      9.723427      9.723427     19.446853
     -2.057057      7.474948      7.474948     14.949897
     -2.047047      5.376840      5.376840     10.753680
     -2.037037      3.598575      3.598575      7.197150
     -2.027027      2.233614      2.233614      4.467227
     -2.017017      1.284225      1.284225      2.568450
     -2.007007      0.686342      0.686342      1.372685
     -1.996997      0.349925      0.349925      0.699851
     -1.986987      0.194370      0.194370      0.388740
     -1.976977      0.170621      0.170621      0.341241
     -1.966967      0.271532      0.271532      0.543063
     -1.956957      0.534889      0.534889      1.069778
     -1.946947      1.040455      1.040455      2.080910
     -1.936937      1.897734      1.897734      3.795467
     -1.926927      3.219564      3.219564      6.439128
     -1.916917      5.081082      5.081082     10.162163
     -1.906907      7.473085      7.473085     14.946169
     -1.896897     10.267955     10.267955     20.535910
     -1.886887     13.217573     13.217573     26.435145
     -1.876877     15.992586     15.992586     31.985172
     -1.866867     18.255283     18.255283     36.510567
     -1.856857     19.743925     19.743925     39.487849
     -1.846847     20.341945     20.341945     40.683889
     -1.836837     20.110257     20.110257     40.220514
     -1.826827     19.269888     19.269888     38.539775
     -1.816817     18.133513     18.133513     36.267025
     -1.806807     17.000791     17.000791     34.001583
     -1.796797     16.052284     16.052284     32.104569
     -1.786787     15.288416     15.288416     30.576833
     -1.776777     14.548097     14.548097     29.096194
     -1.766767     13.604512     13.604512     27.209024
     -1.756757     12.293262     12.293262     24.586524
     -1.746747     10.609633     10.609633     21.219266
     -1.736737      8.731199      8.731199     17.462398
     -1.726727      6.965222      6.965222     13.930443
     -1.716717      5.656653      5.656653     11.313306
     -1.706707      5.100007      5.100007     10.200014
     -1.696697      5.479346      5.479346     10.958692
     -1.686687      6.836287      6.836287     13.672575
     -1.676677      9.055839      9.055839     18.111678
     -1.666667     11.866976     11.866976     23.733951
     -1.656657     14.866469     14.866469     29.732938
     -1.646647     17.576281     17.576281     35.152562
     -1.636637     19.533020     19.533020     39.066040
     -1.626627     20.390976     20.390976     40.781951
