# EIG2DOS: Utility for SIESTA to obtain the electronic density of states
#  E. Artacho, Apr 1999, A. Garcia, Apr 2012
#  Nick R. Papior, Feb 2017
# ------------------------------------------
# Eigenvalues calculated from a non-polarized calculation
# Eigenvalues read from siesta.EIG
# Kpoint weights read from siesta.KP
# Using smearing parameter:   0.0500
# Using 1000 points in the energy range
# Selected bands: 1 to: 2981
# Emin, Emax in file for selected band(s):    -27.2769834    218.3794740
# Nbands, Nspin, Nk   =   2981     1     1
# E_F                 =    -4.2204 eV --> (shifted to ZERO)
# Broadening          =     0.0500 eV
#
#        E            N(up)  (=)   N(down)         Ntot
     -5.000000     36.082401     36.082401     72.164802
     -4.989990     40.051782     40.051782     80.103563
     -4.979980     43.092133     43.092133     86.184266
     -4.969970     44.711814     44.711814     89.423627
     -4.959960     44.653605     44.653605     89.307211
     -4.949950     42.979214     42.979214     85.958427
     -4.939940     40.061887     40.061887     80.123774
     -4.929930     36.509326     36.509326     73.018652
     -4.919920     33.060202     33.060202     66.120403
     -4.909910     30.483334     30.483334     60.966668
     -4.899900     29.475547     29.475547     58.951093
     -4.889890     30.535232     30.535232     61.070463
     -4.879880     33.807786     33.807786     67.615571
     -4.869870     38.948621     38.948621     77.897242
     -4.859860     45.089776     45.089776     90.179552
     -4.849850     50.983386     50.983386    101.966773
     -4.839840     55.319321     55.319321    110.638642
     -4.829830     57.114265     57.114265    114.228529
     -4.819820     56.011243     56.011243    112.022487
     -4.809810     52.357155     52.357155    104.714310
     -4.799800     47.030545     47.030545     94.061090
     -4.789790     41.110688     41.110688     82.221377
     -4.779780     35.541859     35.541859     71.083719
     -4.769770     30.923460     30.923460     61.846919
     -4.759760     27.473795     27.473795     54.947591
     -4.749750     25.129581     25.129581     50.259163
     -4.739740     23.698596     23.698596     47.397191
     -4.729730     22.986713     22.986713     45.973425
     -4.719720     22.853703     22.853703     45.707406
     -4.709710     23.193274     23.193274     46.386548
     -4.699700     23.869646     23.869646     47.739292
     -4.689690     24.666331     24.666331     49.332662
     -4.679680     25.300663     25.300663     50.601326
     -4.669670     25.523358     25.523358     51.046716
     -4.659660     25.267883     25.267883     50.535766
     -4.649650     24.769866     24.769866     49.539733
     -4.639640     24.572254     24.572254     49.144508
     -4.629630     25.376216     25.376216     50.752433
     -4.619620     27.771973     27.771973     55.543945
     -4.609610     31.952054     31.952054     63.904108
     -4.599600     37.537080     37.537080     75.074160
     -4.589590     43.612138     43.612138     87.224276
     -4.579580     48.987407     48.987407     97.974813
     -4.569570     52.594346     52.594346    105.188692
     -4.559560     53.858843     53.858843    107.717687
     -4.549550     52.894715     52.894715    105.789431
     -4.539540     50.437993     50.437993    100.875986
     -4.529530     47.555744     47.555744     95.111488
     -4.519520     45.255561     45.255561     90.511122
     -4.509510     44.151540     44.151540     88.303079
     -4.499499     44.303937     44.303937     88.607874
     -4.489489     45.269036     45.269036     90.538073
     -4.479479     46.312270     46.312270     92.624541
     -4.469469     46.684740     46.684740     93.369480
     -4.459459     45.856999     45.856999     91.713997
     -4.449449     43.640138     43.640138     87.280275
     -4.439439     40.181782     40.181782     80.363564
     -4.429429     35.875481     35.875481     71.750962
     -4.419419     31.243504     31.243504     62.487009
     -4.409409     26.839114     26.839114     53.678229
     -4.399399     23.179379     23.179379     46.358758
     -4.389389     20.690354     20.690354     41.380708
     -4.379379     19.644620     19.644620     39.289240
     -4.369369     20.096310     20.096310     40.192619
     -4.359359     21.847617     21.847617     43.695234
     -4.349349     24.485211     24.485211     48.970421
     -4.339339     27.495416     27.495416     54.990832
     -4.329329     30.421505     30.421505     60.843010
     -4.319319     32.997005     32.997005     65.994011
     -4.309309     35.196605     35.196605     70.393209
     -4.299299     37.185340     37.185340     74.370681
     -4.289289     39.191601     39.191601     78.383201
     -4.279279     41.356150     41.356150     82.712301
     -4.269269     43.612562     43.612562     87.225123
     -4.259259     45.643592     45.643592     91.287184
     -4.249249     46.940396     46.940396     93.880791
     -4.239239     46.963045     46.963045     93.926090
     -4.229229     45.358109     45.358109     90.716217
     -4.219219     42.146782     42.146782     84.293564
     -4.209209     37.787569     37.787569     75.575137
     -4.199199     33.063218     33.063218     66.126437
     -4.189189     28.827643     28.827643     57.655285
     -4.179179     25.724739     25.724739     51.449478
     -4.169169     24.008048     24.008048     48.016097
     -4.159159     23.536728     23.536728     47.073456
     -4.149149     23.933057     23.933057     47.866114
     -4.139139     24.810932     24.810932     49.621864
     -4.129129     25.958754     25.958754     51.917508
     -4.119119     27.388976     27.388976     54.777951
     -4.109109     29.233400     29.233400     58.466799
     -4.099099     31.541243     31.541243     63.082485
     -4.089089     34.094264     34.094264     68.188528
     -4.079079     36.358315     36.358315     72.716631
     -4.069069     37.628356     37.628356     75.256712
     -4.059059     37.316735     37.316735     74.633469
     -4.049049     35.242577     35.242577     70.485153
     -4.039039     31.766205     31.766205     63.532410
     -4.029029     27.693177     27.693177     55.386354
     -4.019019     23.998924     23.998924     47.997848
     -4.009009     21.516041     21.516041     43.032081
     -3.998999     20.727792     20.727792     41.455584
     -3.988989     21.732646     21.732646     43.465293
     -3.978979     24.345155     24.345155     48.690309
     -3.968969     28.241745     28.241745     56.483489
     -3.958959     33.070832     33.070832     66.141664
     -3.948949     38.501518     38.501518     77.003035
     -3.938939     44.235412     44.235412     88.470825
     -3.928929     50.016302     50.016302    100.032604
     -3.918919     55.644804     55.644804    111.289608
     -3.908909     60.973869     60.973869    121.947737
     -3.898899     65.860113     65.860113    131.720225
     -3.888889     70.079727     70.079727    140.159454
     -3.878879     73.258080     73.258080    146.516159
     -3.868869     74.873939     74.873939    149.747878
     -3.858859     74.369065     74.369065    148.738130
     -3.848849     71.338455     71.338455    142.676910
     -3.838839     65.728270     65.728270    131.456540
     -3.828829     57.954011     57.954011    115.908023
     -3.818819     48.878148     48.878148     97.756296
     -3.808809     39.641147     39.641147     79.282294
     -3.798799     31.397443     31.397443     62.794886
     -3.788789     25.042974     25.042974     50.085947
     -3.778779     21.020153     21.020153     42.040305
     -3.768769     19.253972     19.253972     38.507943
     -3.758759     19.227011     19.227011     38.454023
     -3.748749     20.160999     20.160999     40.321998
     -3.738739     21.249388     21.249388     42.498777
     -3.728729     21.880101     21.880101     43.760202
     -3.718719     21.794971     21.794971     43.589942
     -3.708709     21.147705     21.147705     42.295411
     -3.698699     20.443231     20.443231     40.886463
     -3.688689     20.368152     20.368152     40.736304
     -3.678679     21.552929     21.552929     43.105857
     -3.668669     24.334359     24.334359     48.668719
     -3.658659     28.598949     28.598949     57.197899
     -3.648649     33.770639     33.770639     67.541278
     -3.638639     38.957340     38.957340     77.914680
     -3.628629     43.206335     43.206335     86.412670
     -3.618619     45.771127     45.771127     91.542254
     -3.608609     46.290728     46.290728     92.581456
     -3.598599     44.829301     44.829301     89.658602
     -3.588589     41.790186     41.790186     83.580371
     -3.578579     37.762826     37.762826     75.525651
     -3.568569     33.363825     33.363825     66.727651
     -3.558559     29.108069     29.108069     58.216137
     -3.548549     25.322727     25.322727     50.645455
     -3.538539     22.111959     22.111959     44.223919
     -3.528529     19.382502     19.382502     38.765003
     -3.518519     16.930186     16.930186     33.860371
     -3.508509     14.561229     14.561229     29.122458
     -3.498498     12.199240     12.199240     24.398480
     -3.488488      9.931505      9.931505     19.863009
     -3.478478      7.978209      7.978209     15.956419
     -3.468468      6.605163      6.605163     13.210326
     -3.458458      6.020679      6.020679     12.041357
     -3.448448      6.294242      6.294242     12.588483
     -3.438438      7.320116      7.320116     14.640233
     -3.428428      8.836633      8.836633     17.673265
     -3.418418     10.502681     10.502681     21.005362
     -3.408408     12.018590     12.018590     24.037180
     -3.398398     13.255944     13.255944     26.511888
     -3.388388     14.341987     14.341987     28.683973
     -3.378378     15.648349     15.648349     31.296698
     -3.368368     17.669231     17.669231     35.338462
     -3.358358     20.826288     20.826288     41.652576
     -3.348348     25.276052     25.276052     50.552105
     -3.338338     30.796448     30.796448     61.592896
     -3.328328     36.792193     36.792193     73.584387
     -3.318318     42.409416     42.409416     84.818831
     -3.308308     46.717142     46.717142     93.434284
     -3.298298     48.908314     48.908314     97.816628
     -3.288288     48.482210     48.482210     96.964419
     -3.278278     45.374365     45.374365     90.748731
     -3.268268     39.997660     39.997660     79.995321
     -3.258258     33.167156     33.167156     66.334312
     -3.248248     25.915576     25.915576     51.831151
     -3.238238     19.253234     19.253234     38.506467
     -3.228228     13.952751     13.952751     27.905502
     -3.218218     10.423284     10.423284     20.846568
     -3.208208      8.692851      8.692851     17.385702
     -3.198198      8.475134      8.475134     16.950268
     -3.188188      9.283873      9.283873     18.567746
     -3.178178     10.568981     10.568981     21.137963
     -3.168168     11.859530     11.859530     23.719059
     -3.158158     12.892557     12.892557     25.785114
     -3.148148     13.690263     13.690263     27.380526
     -3.138138     14.544352     14.544352     29.088704
     -3.128128     15.891397     15.891397     31.782793
     -3.118118     18.110672     18.110672     36.221344
     -3.108108     21.320358     21.320358     42.640715
     -3.098098     25.261809     25.261809     50.523618
     -3.088088     29.332342     29.332342     58.664684
     -3.078078     32.764154     32.764154     65.528309
     -3.068068     34.878549     34.878549     69.757099
     -3.058058     35.305399     35.305399     70.610799
     -3.048048     34.072379     34.072379     68.144759
     -3.038038     31.534258     31.534258     63.068516
     -3.028028     28.194836     28.194836     56.389672
     -3.018018     24.524321     24.524321     49.048643
     -3.008008     20.862731     20.862731     41.725461
     -2.997998     17.436521     17.436521     34.873041
     -2.987988     14.445795     14.445795     28.891589
     -2.977978     12.147023     12.147023     24.294047
     -2.967968     10.873191     10.873191     21.746381
     -2.957958     10.977181     10.977181     21.954362
     -2.947948     12.722975     12.722975     25.445949
     -2.937938     16.166707     16.166707     32.333413
     -2.927928     21.070061     21.070061     42.140122
     -2.917918     26.881471     26.881471     53.762942
     -2.907908     32.807763     32.807763     65.615525
     -2.897898     37.974818     37.974818     75.949636
     -2.887888     41.640778     41.640778     83.281557
     -2.877878     43.392729     43.392729     86.785458
     -2.867868     43.248992     43.248992     86.497983
     -2.857858     41.617742     41.617742     83.235484
     -2.847848     39.121825     39.121825     78.243650
     -2.837838     36.361996     36.361996     72.723992
     -2.827828     33.722100     33.722100     67.444200
     -2.817818     31.299532     31.299532     62.599063
     -2.807808     28.980289     28.980289     57.960578
     -2.797798     26.603948     26.603948     53.207896
     -2.787788     24.121110     24.121110     48.242221
     -2.777778     21.658273     21.658273     43.316545
     -2.767768     19.464512     19.464512     38.929023
     -2.757758     17.785233     17.785233     35.570466
     -2.747748     16.748195     16.748195     33.496390
     -2.737738     16.332391     16.332391     32.664782
     -2.727728     16.430984     16.430984     32.861968
     -2.717718     16.954036     16.954036     33.908071
     -2.707708     17.889672     17.889672     35.779344
     -2.697698     19.274015     19.274015     38.548030
     -2.687688     21.090651     21.090651     42.181302
     -2.677678     23.179698     23.179698     46.359396
     -2.667668     25.238864     25.238864     50.477728
     -2.657658     26.937608     26.937608     53.875215
     -2.647648     28.081872     28.081872     56.163744
     -2.637638     28.722506     28.722506     57.445013
     -2.627628     29.131083     29.131083     58.262166
     -2.617618     29.652671     29.652671     59.305343
     -2.607608     30.524130     30.524130     61.048261
     -2.597598     31.761708     31.761708     63.523416
     -2.587588     33.166348     33.166348     66.332695
     -2.577578     34.416273     34.416273     68.832546
     -2.567568     35.175064     35.175064     70.350128
     -2.557558     35.163617     35.163617     70.327234
     -2.547548     34.196839     34.196839     68.393678
     -2.537538     32.218211     32.218211     64.436422
     -2.527528     29.350405     29.350405     58.700809
     -2.517518     25.937579     25.937579     51.875158
     -2.507508     22.529340     22.529340     45.058680
     -2.497497     19.774957     19.774957     39.549914
     -2.487487     18.247494     18.247494     36.494989
     -2.477477     18.264398     18.264398     36.528795
     -2.467467     19.782956     19.782956     39.565912
     -2.457457     22.420403     22.420403     44.840807
     -2.447447     25.595669     25.595669     51.191337
     -2.437437     28.737698     28.737698     57.475397
     -2.427427     31.475467     31.475467     62.950934
     -2.417417     33.729705     33.729705     67.459410
     -2.407407     35.665637     35.665637     71.331274
     -2.397397     37.525585     37.525585     75.051170
     -2.387387     39.416614     39.416614     78.833228
     -2.377377     41.156698     41.156698     82.313396
     -2.367367     42.266005     42.266005     84.532009
     -2.357357     42.127497     42.127497     84.254994
     -2.347347     40.256477     40.256477     80.512954
     -2.337337     36.555371     36.555371     73.110742
     -2.327327     31.429052     31.429052     62.858105
     -2.317317     25.704244     25.704244     51.408489
     -2.307307     20.394893     20.394893     40.789786
     -2.297297     16.423342     16.423342     32.846684
     -2.287287     14.407952     14.407952     28.815904
     -2.277277     14.573388     14.573388     29.146777
     -2.267267     16.774728     16.774728     33.549456
     -2.257257     20.589271     20.589271     41.178543
     -2.247247     25.428496     25.428496     50.856993
     -2.237237     30.640271     30.640271     61.280543
     -2.227227     35.589107     35.589107     71.178214
     -2.217217     39.712883     39.712883     79.425767
     -2.207207     42.561187     42.561187     85.122375
     -2.197197     43.825741     43.825741     87.651482
     -2.187187     43.373572     43.373572     86.747144
     -2.177177     41.282772     41.282772     82.565544
     -2.167167     37.861173     37.861173     75.722345
     -2.157157     33.615041     33.615041     67.230081
     -2.147147     29.146249     29.146249     58.292498
     -2.137137     24.995019     24.995019     49.990038
     -2.127127     21.488682     21.488682     42.977365
     -2.117117     18.670167     18.670167     37.340335
     -2.107107     16.345468     16.345468     32.690936
     -2.097097     14.225490     14.225490     28.450980
     -2.087087     12.087147     12.087147     24.174294
     -2.077077      9.875304      9.875304     19.750608
     -2.067067      7.709829      7.709829     15.419658
     -2.057057      5.817461      5.817461     11.634922
     -2.047047      4.439257      4.439257      8.878514
     -2.037037      3.757379      3.757379      7.514757
     -2.027027      3.855354      3.855354      7.710709
     -2.017017      4.701338      4.701338      9.402676
     -2.007007      6.141520      6.141520     12.283040
     -1.996997      7.906458      7.906458     15.812916
     -1.986987      9.647295      9.647295     19.294590
     -1.976977     11.013972     11.013972     22.027944
     -1.966967     11.762344     11.762344     23.524688
     -1.956957     11.848822     11.848822     23.697645
     -1.946947     11.462935     11.462935     22.925870
     -1.936937     10.970797     10.970797     21.941594
     -1.926927     10.785092     10.785092     21.570184
     -1.916917     11.214503     11.214503     22.429005
     -1.906907     12.355532     12.355532     24.711063
     -1.896897     14.067796     14.067796     28.135592
     -1.886887     16.034224     16.034224     32.068449
     -1.876877     17.872599     17.872599     35.745198
     -1.866867     19.251453     19.251453     38.502906
     -1.856857     19.973289     19.973289     39.946578
     -1.846847     20.009077     20.009077     40.018154
     -1.836837     19.484416     19.484416     38.968831
     -1.826827     18.624431     18.624431     37.248862
     -1.816817     17.668976     17.668976     35.337951
     -1.806807     16.780768     16.780768     33.561535
     -1.796797     15.982114     15.982114     31.964229
     -1.786787     15.154342     15.154342     30.308684
     -1.776777     14.107611     14.107611     28.215222
     -1.766767     12.689105     12.689105     25.378210
     -1.756757     10.872821     10.872821     21.745641
     -1.746747      8.784739      8.784739     17.569479
     -1.736737      6.656832      6.656832     13.313664
     -1.726727      4.743725      4.743725      9.487450
     -1.716717      3.250249      3.250249      6.500497
     -1.706707      2.301036      2.301036      4.602072
     -1.696697      1.951261      1.951261      3.902521
     -1.686687      2.212953      2.212953      4.425906
     -1.676677      3.067289      3.067289      6.134579
     -1.666667      4.448880      4.448880      8.897760
     -1.656657      6.212500      6.212500     12.425000
     -1.646647      8.111720      8.111720     16.223440
     -1.636637      9.820575      9.820575     19.641151
     -1.626627     11.009965     11.009965     22.019931
