# EIG2DOS: Utility for SIESTA to obtain the electronic density of states
#  E. Artacho, Apr 1999, A. Garcia, Apr 2012
#  Nick R. Papior, Feb 2017
# ------------------------------------------
# Eigenvalues calculated from a non-polarized calculation
# Eigenvalues read from siesta.EIG
# Kpoint weights read from siesta.KP
# Using smearing parameter:   0.0500
# Using 1000 points in the energy range
# Selected bands: 1 to: 2981
# Emin, Emax in file for selected band(s):    -27.0777225    218.3232000
# Nbands, Nspin, Nk   =   2981     1     1
# E_F                 =    -4.2862 eV --> (shifted to ZERO)
# Broadening          =     0.0500 eV
#
#        E            N(up)  (=)   N(down)         Ntot
     -5.000000     45.036526     45.036526     90.073052
     -4.989990     47.258441     47.258441     94.516883
     -4.979980     48.344784     48.344784     96.689568
     -4.969970     48.257727     48.257727     96.515454
     -4.959960     47.029877     47.029877     94.059754
     -4.949950     44.778243     44.778243     89.556486
     -4.939940     41.727477     41.727477     83.454955
     -4.929930     38.228501     38.228501     76.457001
     -4.919920     34.762214     34.762214     69.524428
     -4.909910     31.919985     31.919985     63.839969
     -4.899900     30.346872     30.346872     60.693743
     -4.889890     30.628241     30.628241     61.256482
     -4.879880     33.114658     33.114658     66.229316
     -4.869870     37.723351     37.723351     75.446703
     -4.859860     43.806700     43.806700     87.613400
     -4.849850     50.193647     50.193647    100.387295
     -4.839840     55.453695     55.453695    110.907389
     -4.829830     58.319162     58.319162    116.638324
     -4.819820     58.096690     58.096690    116.193381
     -4.809810     54.879707     54.879707    109.759414
     -4.799800     49.465005     49.465005     98.930009
     -4.789790     43.026396     43.026396     86.052792
     -4.779780     36.711737     36.711737     73.423474
     -4.769770     31.339606     31.339606     62.679212
     -4.759760     27.286886     27.286886     54.573771
     -4.749750     24.547532     24.547532     49.095063
     -4.739740     22.876220     22.876220     45.752440
     -4.729730     21.930734     21.930734     43.861468
     -4.719720     21.367543     21.367543     42.735085
     -4.709710     20.887174     20.887174     41.774347
     -4.699700     20.249491     20.249491     40.498982
     -4.689690     19.284319     19.284319     38.568637
     -4.679680     17.915983     17.915983     35.831967
     -4.669670     16.204671     16.204671     32.409343
     -4.659660     14.388228     14.388228     28.776456
     -4.649650     12.895300     12.895300     25.790599
     -4.639640     12.302738     12.302738     24.605475
     -4.629630     13.225881     13.225881     26.451763
     -4.619620     16.152283     16.152283     32.304565
     -4.609610     21.252767     21.252767     42.505534
     -4.599600     28.226862     28.226862     56.453724
     -4.589590     36.254794     36.254794     72.509589
     -4.579580     44.116904     44.116904     88.233808
     -4.569570     50.488185     50.488185    100.976371
     -4.559560     54.331925     54.331925    108.663851
     -4.549550     55.245970     55.245970    110.491939
     -4.539540     53.608775     53.608775    107.217550
     -4.529530     50.448092     50.448092    100.896184
     -4.519520     47.078374     47.078374     94.156748
     -4.509510     44.656887     44.656887     89.313773
     -4.499499     43.837150     43.837150     87.674300
     -4.489489     44.640868     44.640868     89.281736
     -4.479479     46.562446     46.562446     93.124893
     -4.469469     48.821752     48.821752     97.643505
     -4.459459     50.637568     50.637568    101.275137
     -4.449449     51.418508     51.418508    102.837017
     -4.439439     50.836123     50.836123    101.672245
     -4.429429     48.812552     48.812552     97.625105
     -4.419419     45.484016     45.484016     90.968033
     -4.409409     41.180512     41.180512     82.361024
     -4.399399     36.413803     36.413803     72.827606
     -4.389389     31.830900     31.830900     63.661799
     -4.379379     28.099068     28.099068     56.198136
     -4.369369     25.737013     25.737013     51.474026
     -4.359359     24.958790     24.958790     49.917580
     -4.349349     25.610781     25.610781     51.221562
     -4.339339     27.243317     27.243317     54.486634
     -4.329329     29.290689     29.290689     58.581379
     -4.319319     31.279303     31.279303     62.558606
     -4.309309     32.975042     32.975042     65.950084
     -4.299299     34.417122     34.417122     68.834245
     -4.289289     35.839621     35.839621     71.679243
     -4.279279     37.522271     37.522271     75.044542
     -4.269269     39.626465     39.626465     79.252929
     -4.259259     42.069259     42.069259     84.138518
     -4.249249     44.480311     44.480311     88.960622
     -4.239239     46.272997     46.272997     92.545994
     -4.229229     46.828467     46.828467     93.656935
     -4.219219     45.737790     45.737790     91.475579
     -4.209209     42.998889     42.998889     85.997778
     -4.199199     39.063433     39.063433     78.126866
     -4.189189     34.693519     34.693519     69.387039
     -4.179179     30.688609     30.688609     61.377219
     -4.169169     27.615365     27.615365     55.230729
     -4.159159     25.668175     25.668175     51.336350
     -4.149149     24.711295     24.711295     49.422589
     -4.139139     24.456468     24.456468     48.912937
     -4.129129     24.668937     24.668937     49.337875
     -4.119119     25.293817     25.293817     50.587634
     -4.109109     26.442734     26.442734     52.885468
     -4.099099     28.250827     28.250827     56.501655
     -4.089089     30.680444     30.680444     61.360888
     -4.079079     33.384627     33.384627     66.769255
     -4.069069     35.727325     35.727325     71.454650
     -4.059059     36.982499     36.982499     73.964997
     -4.049049     36.631997     36.631997     73.263994
     -4.039039     34.613061     34.613061     69.226122
     -4.029029     31.382027     31.382027     62.764055
     -4.019019     27.759200     27.759200     55.518400
     -4.009009     24.639910     24.639910     49.279819
     -3.998999     22.720666     22.720666     45.441333
     -3.988989     22.359713     22.359713     44.719427
     -3.978979     23.596896     23.596896     47.193792
     -3.968969     26.267599     26.267599     52.535197
     -3.958959     30.116650     30.116650     60.233300
     -3.948949     34.856888     34.856888     69.713775
     -3.938939     40.181242     40.181242     80.362483
     -3.928929     45.773102     45.773102     91.546203
     -3.918919     51.344047     51.344047    102.688094
     -3.908909     56.682240     56.682240    113.364480
     -3.898899     61.663616     61.663616    123.327232
     -3.888889     66.191643     66.191643    132.383287
     -3.878879     70.082600     70.082600    140.165200
     -3.868869     72.965020     72.965020    145.930039
     -3.858859     74.275074     74.275074    148.550148
     -3.848849     73.389584     73.389584    146.779168
     -3.838839     69.863900     69.863900    139.727801
     -3.828829     63.674806     63.674806    127.349611
     -3.818819     55.349721     55.349721    110.699442
     -3.808809     45.907535     45.907535     91.815070
     -3.798799     36.621053     36.621053     73.242105
     -3.788789     28.689774     28.689774     57.379548
     -3.778779     22.943539     22.943539     45.887079
     -3.768769     19.672686     19.672686     39.345373
     -3.758759     18.621623     18.621623     37.243245
     -3.748749     19.124777     19.124777     38.249555
     -3.738739     20.329475     20.329475     40.658949
     -3.728729     21.441480     21.441480     42.882960
     -3.718719     21.935513     21.935513     43.871027
     -3.708709     21.685159     21.685159     43.370318
     -3.698699     20.981622     20.981622     41.963243
     -3.688689     20.431212     20.431212     40.862423
     -3.678679     20.749790     20.749790     41.499580
     -3.668669     22.505850     22.505850     45.011700
     -3.658659     25.891785     25.891785     51.783571
     -3.648649     30.608377     30.608377     61.216755
     -3.638639     35.916898     35.916898     71.833795
     -3.628629     40.849383     40.849383     81.698767
     -3.618619     44.497566     44.497566     88.995132
     -3.608609     46.264700     46.264700     92.529400
     -3.598599     45.987463     45.987463     91.974927
     -3.588589     43.904350     43.904350     87.808700
     -3.578579     40.517332     40.517332     81.034664
     -3.568569     36.422541     36.422541     72.845082
     -3.558559     32.166991     32.166991     64.333983
     -3.548549     28.152095     28.152095     56.304190
     -3.538539     24.584408     24.584408     49.168816
     -3.528529     21.475588     21.475588     42.951177
     -3.518519     18.696345     18.696345     37.392691
     -3.508509     16.074826     16.074826     32.149652
     -3.498498     13.504718     13.504718     27.009435
     -3.488488     11.016259     11.016259     22.032518
     -3.478478      8.779368      8.779368     17.558737
     -3.468468      7.042381      7.042381     14.084761
     -3.458458      6.038012      6.038012     12.076024
     -3.448448      5.894477      5.894477     11.788953
     -3.438438      6.578762      6.578762     13.157524
     -3.428428      7.885892      7.885892     15.771784
     -3.418418      9.480077      9.480077     18.960155
     -3.408408     10.985356     10.985356     21.970712
     -3.398398     12.106744     12.106744     24.213488
     -3.388388     12.742084     12.742084     25.484169
     -3.378378     13.036272     13.036272     26.072545
     -3.368368     13.347255     13.347255     26.694509
     -3.358358     14.132122     14.132122     28.264244
     -3.348348     15.797895     15.797895     31.595791
     -3.338338     18.571029     18.571029     37.142057
     -3.328328     22.418854     22.418854     44.837709
     -3.318318     27.026330     27.026330     54.052660
     -3.308308     31.819057     31.819057     63.638114
     -3.298298     36.034520     36.034520     72.069041
     -3.288288     38.855494     38.855494     77.710987
     -3.278278     39.603835     39.603835     79.207669
     -3.268268     37.947615     37.947615     75.895230
     -3.258258     34.034870     34.034870     68.069739
     -3.248248     28.476659     28.476659     56.953317
     -3.238238     22.169015     22.169015     44.338030
     -3.228228     16.026901     16.026901     32.053801
     -3.218218     10.745802     10.745802     21.491604
     -3.208208      6.681372      6.681372     13.362744
     -3.198198      3.868148      3.868148      7.736296
     -3.188188      2.134034      2.134034      4.268068
     -3.178178      1.242632      1.242632      2.485264
     -3.168168      1.010573      1.010573      2.021146
     -3.158158      1.377563      1.377563      2.755126
     -3.148148      2.428525      2.428525      4.857049
     -3.138138      4.371561      4.371561      8.743121
     -3.128128      7.470673      7.470673     14.941347
     -3.118118     11.933017     11.933017     23.866035
     -3.108108     17.766947     17.766947     35.533893
     -3.098098     24.655454     24.655454     49.310908
     -3.088088     31.911176     31.911176     63.822351
     -3.078078     38.569626     38.569626     77.139251
     -3.068068     43.625227     43.625227     87.250453
     -3.058058     46.337746     46.337746     92.675492
     -3.048048     46.479903     46.479903     92.959806
     -3.038038     44.404989     44.404989     88.809978
     -3.028028     40.894528     40.894528     81.789055
     -3.018018     36.857441     36.857441     73.714881
     -3.008008     33.025642     33.025642     66.051284
     -2.997998     29.782163     29.782163     59.564325
     -2.987988     27.177618     27.177618     54.355236
     -2.977978     25.092701     25.092701     50.185403
     -2.967968     23.442812     23.442812     46.885623
     -2.957958     22.317889     22.317889     44.635779
     -2.947948     21.993775     21.993775     43.987549
     -2.937938     22.814006     22.814006     45.628012
     -2.927928     24.998219     24.998219     49.996438
     -2.917918     28.466775     28.466775     56.933550
     -2.907908     32.768593     32.768593     65.537185
     -2.897898     37.158248     37.158248     74.316496
     -2.887888     40.803282     40.803282     81.606565
     -2.877878     43.041647     43.041647     86.083294
     -2.867868     43.582398     43.582398     87.164796
     -2.857858     42.565290     42.565290     85.130581
     -2.847848     40.457613     40.457613     80.915227
     -2.837838     37.839823     37.839823     75.679647
     -2.827828     35.179738     35.179738     70.359475
     -2.817818     32.694959     32.694959     65.389917
     -2.807808     30.355270     30.355270     60.710539
     -2.797798     28.005406     28.005406     56.010811
     -2.787788     25.530298     25.530298     51.060596
     -2.777778     22.969446     22.969446     45.938891
     -2.767768     20.521924     20.521924     41.043848
     -2.757758     18.449038     18.449038     36.898075
     -2.747748     16.940859     16.940859     33.881718
     -2.737738     16.031718     16.031718     32.063437
     -2.727728     15.616582     15.616582     31.233165
     -2.717718     15.554502     15.554502     31.109004
     -2.707708     15.787493     15.787493     31.574986
     -2.697698     16.391074     16.391074     32.782149
     -2.687688     17.516381     17.516381     35.032762
     -2.677678     19.256982     19.256982     38.513964
     -2.667668     21.528444     21.528444     43.056887
     -2.657658     24.046689     24.046689     48.093379
     -2.647648     26.430125     26.430125     52.860251
     -2.637638     28.368922     28.368922     56.737844
     -2.627628     29.758397     29.758397     59.516793
     -2.617618     30.715994     30.715994     61.431989
     -2.607608     31.478280     31.478280     62.956559
     -2.597598     32.250384     32.250384     64.500769
     -2.587588     33.100711     33.100711     66.201423
     -2.577578     33.947748     33.947748     67.895495
     -2.567568     34.615708     34.615708     69.231417
     -2.557558     34.899776     34.899776     69.799553
     -2.547548     34.603503     34.603503     69.207006
     -2.537538     33.560593     33.560593     67.121187
     -2.527528     31.678007     31.678007     63.356015
     -2.517518     29.012115     29.012115     58.024230
     -2.507508     25.839622     25.839622     51.679245
     -2.497497     22.659589     22.659589     45.319178
     -2.487487     20.089651     20.089651     40.179302
     -2.477477     18.681528     18.681528     37.363056
     -2.467467     18.734134     18.734134     37.468267
     -2.457457     20.192392     20.192392     40.384783
     -2.447447     22.681963     22.681963     45.363926
     -2.437437     25.666796     25.666796     51.333592
     -2.427427     28.659166     28.659166     57.318332
     -2.417417     31.386637     31.386637     62.773274
     -2.407407     33.838926     33.838926     67.677853
     -2.397397     36.173271     36.173271     72.346543
     -2.387387     38.525412     38.525412     77.050823
     -2.377377     40.822566     40.822566     81.645132
     -2.367367     42.699732     42.699732     85.399463
     -2.357357     43.575889     43.575889     87.151777
     -2.347347     42.870286     42.870286     85.740572
     -2.337337     40.266698     40.266698     80.533397
     -2.327327     35.903442     35.903442     71.806885
     -2.317317     30.398488     30.398488     60.796976
     -2.307307     24.697384     24.697384     49.394767
     -2.297297     19.812853     19.812853     39.625707
     -2.287287     16.563865     16.563865     33.127731
     -2.277277     15.403521     15.403521     30.807042
     -2.267267     16.371209     16.371209     32.742419
     -2.257257     19.152126     19.152126     38.304251
     -2.247247     23.199862     23.199862     46.399725
     -2.237237     27.874887     27.874887     55.749773
     -2.227227     32.561103     32.561103     65.122207
     -2.217217     36.736798     36.736798     73.473596
     -2.207207     39.995273     39.995273     79.990546
     -2.197197     42.033306     42.033306     84.066612
     -2.187187     42.641778     42.641778     85.283556
     -2.177177     41.727856     41.727856     83.455712
     -2.167167     39.368020     39.368020     78.736041
     -2.157157     35.853062     35.853062     71.706124
     -2.147147     31.670378     31.670378     63.340756
     -2.137137     27.395550     27.395550     54.791100
     -2.127127     23.522966     23.522966     47.045932
     -2.117117     20.314396     20.314396     40.628791
     -2.107107     17.745897     17.745897     35.491793
     -2.097097     15.581189     15.581189     31.162378
     -2.087087     13.527891     13.527891     27.055783
     -2.077077     11.390208     11.390208     22.780416
     -2.067067      9.143898      9.143898     18.287795
     -2.057057      6.912841      6.912841     13.825682
     -2.047047      4.881921      4.881921      9.763842
     -2.037037      3.204666      3.204666      6.409332
     -2.027027      1.949998      1.949998      3.899996
     -2.017017      1.099315      1.099315      2.198630
     -2.007007      0.577729      0.577729      1.155459
     -1.996997      0.294596      0.294596      0.589191
     -1.986987      0.175695      0.175695      0.351389
     -1.976977      0.181820      0.181820      0.363641
     -1.966967      0.316765      0.316765      0.633531
     -1.956957      0.628773      0.628773      1.257545
     -1.946947      1.205611      1.205611      2.411223
     -1.936937      2.159174      2.159174      4.318348
     -1.926927      3.595328      3.595328      7.190655
     -1.916917      5.570785      5.570785     11.141570
     -1.906907      8.048776      8.048776     16.097551
     -1.896897     10.872835     10.872835     21.745671
     -1.886887     13.776047     13.776047     27.552093
     -1.876877     16.430066     16.430066     32.860133
     -1.866867     18.520974     18.520974     37.041949
     -1.856857     19.827675     19.827675     39.655350
     -1.846847     20.278398     20.278398     40.556797
     -1.836837     19.968296     19.968296     39.936592
     -1.826827     19.130194     19.130194     38.260388
     -1.816817     18.060822     18.060822     36.121643
     -1.806807     17.020118     17.020118     34.040236
     -1.796797     16.139516     16.139516     32.279031
     -1.786787     15.383068     15.383068     30.766135
     -1.776777     14.588434     14.588434     29.176867
     -1.766767     13.575003     13.575003     27.150005
     -1.756757     12.266773     12.266773     24.533547
     -1.746747     10.766004     10.766004     21.532007
     -1.736737      9.339311      9.339311     18.678621
     -1.726727      8.323923      8.323923     16.647847
     -1.716717      7.999573      7.999573     15.999147
     -1.706707      8.482676      8.482676     16.965352
     -1.696697      9.684464      9.684464     19.368927
     -1.686687     11.345442     11.345442     22.690885
     -1.676677     13.127141     13.127141     26.254282
     -1.666667     14.718689     14.718689     29.437378
     -1.656657     15.910418     15.910418     31.820836
     -1.646647     16.606040     16.606040     33.212080
     -1.636637     16.782431     16.782431     33.564862
     -1.626627     16.438926     16.438926     32.877853
