# EIG2DOS: Utility for SIESTA to obtain the electronic density of states
#  E. Artacho, Apr 1999, A. Garcia, Apr 2012
#  Nick R. Papior, Feb 2017
# ------------------------------------------
# Eigenvalues calculated from a non-polarized calculation
# Eigenvalues read from siesta.EIG
# Kpoint weights read from siesta.KP
# Using smearing parameter:   0.0500
# Using 1000 points in the energy range
# Selected bands: 1 to: 2981
# Emin, Emax in file for selected band(s):    -27.3763997    218.4019760
# Nbands, Nspin, Nk   =   2981     1     1
# E_F                 =    -4.1941 eV --> (shifted to ZERO)
# Broadening          =     0.0500 eV
#
#        E            N(up)  (=)   N(down)         Ntot
     -5.000000     35.466371     35.466371     70.932742
     -4.989990     40.214548     40.214548     80.429096
     -4.979980     44.059876     44.059876     88.119752
     -4.969970     46.305682     46.305682     92.611365
     -4.959960     46.549618     46.549618     93.099236
     -4.949950     44.817872     44.817872     89.635743
     -4.939940     41.559893     41.559893     83.119786
     -4.929930     37.530764     37.530764     75.061529
     -4.919920     33.628223     33.628223     67.256447
     -4.909910     30.739069     30.739069     61.478139
     -4.899900     29.606655     29.606655     59.213310
     -4.889890     30.701703     30.701703     61.403405
     -4.879880     34.092382     34.092382     68.184764
     -4.869870     39.354575     39.354575     78.709150
     -4.859860     45.594206     45.594206     91.188412
     -4.849850     51.629781     51.629781    103.259561
     -4.839840     56.305993     56.305993    112.611985
     -4.829830     58.825778     58.825778    117.651555
     -4.819820     58.958485     58.958485    117.916969
     -4.809810     57.033268     57.033268    114.066537
     -4.799800     53.732397     53.732397    107.464795
     -4.789790     49.795411     49.795411     99.590822
     -4.779780     45.775443     45.775443     91.550885
     -4.769770     41.941321     41.941321     83.882642
     -4.759760     38.330005     38.330005     76.660010
     -4.749750     34.880079     34.880079     69.760158
     -4.739740     31.555678     31.555678     63.111357
     -4.729730     28.399923     28.399923     56.799845
     -4.719720     25.509025     25.509025     51.018050
     -4.709710     22.962049     22.962049     45.924098
     -4.699700     20.760367     20.760367     41.520734
     -4.689690     18.822422     18.822422     37.644844
     -4.679680     17.048850     17.048850     34.097700
     -4.669670     15.432940     15.432940     30.865881
     -4.659660     14.160546     14.160546     28.321091
     -4.649650     13.638522     13.638522     27.277044
     -4.639640     14.415333     14.415333     28.830667
     -4.629630     17.000476     17.000476     34.000953
     -4.619620     21.634346     21.634346     43.268693
     -4.609610     28.093060     28.093060     56.186120
     -4.599600     35.621016     35.621016     71.242031
     -4.589590     43.054611     43.054611     86.109223
     -4.579580     49.129947     49.129947     98.259894
     -4.569570     52.877737     52.877737    105.755474
     -4.559560     53.948078     53.948078    107.896157
     -4.549550     52.720653     52.720653    105.441307
     -4.539540     50.146251     50.146251    100.292501
     -4.529530     47.386415     47.386415     94.772831
     -4.519520     45.403439     45.403439     90.806878
     -4.509510     44.661686     44.661686     89.323371
     -4.499499     45.039107     45.039107     90.078214
     -4.489489     45.953960     45.953960     91.907921
     -4.479479     46.630570     46.630570     93.261140
     -4.469469     46.388490     46.388490     92.776980
     -4.459459     44.849483     44.849483     89.698966
     -4.449449     42.005786     42.005786     84.011572
     -4.439439     38.157570     38.157570     76.315139
     -4.429429     33.778486     33.778486     67.556973
     -4.419419     29.383067     29.383067     58.766135
     -4.409409     25.444036     25.444036     50.888073
     -4.399399     22.360457     22.360457     44.720914
     -4.389389     20.441934     20.441934     40.883868
     -4.379379     19.874577     19.874577     39.749153
     -4.369369     20.668125     20.668125     41.336251
     -4.359359     22.620928     22.620928     45.241857
     -4.349349     25.347281     25.347281     50.694562
     -4.339339     28.380614     28.380614     56.761228
     -4.329329     31.317716     31.317716     62.635431
     -4.319319     33.938617     33.938617     67.877234
     -4.309309     36.244768     36.244768     72.489535
     -4.299299     38.397649     38.397649     76.795298
     -4.289289     40.585291     40.585291     81.170583
     -4.279279     42.872486     42.872486     85.744972
     -4.269269     45.095443     45.095443     90.190887
     -4.259259     46.848529     46.848529     93.697058
     -4.249249     47.583936     47.583936     95.167872
     -4.239239     46.805071     46.805071     93.610141
     -4.229229     44.288090     44.288090     88.576180
     -4.219219     40.235665     40.235665     80.471331
     -4.209209     35.279586     35.279586     70.559173
     -4.199199     30.310938     30.310938     60.621876
     -4.189189     26.200269     26.200269     52.400538
     -4.179179     23.527466     23.527466     47.054932
     -4.169169     22.437413     22.437413     44.874825
     -4.159159     22.675753     22.675753     45.351506
     -4.149149     23.774236     23.774236     47.548473
     -4.139139     25.289594     25.289594     50.579188
     -4.129129     26.980722     26.980722     53.961443
     -4.119119     28.841155     28.841155     57.682311
     -4.109109     30.974490     30.974490     61.948979
     -4.099099     33.382550     33.382550     66.765100
     -4.089089     35.791898     35.791898     71.583796
     -4.079079     37.637539     37.637539     75.275078
     -4.069069     38.243723     38.243723     76.487447
     -4.059059     37.126549     37.126549     74.253098
     -4.049049     34.261414     34.261414     68.522828
     -4.039039     30.167746     30.167746     60.335492
     -4.029029     25.762616     25.762616     51.525232
     -4.019019     22.060234     22.060234     44.120467
     -4.009009     19.866383     19.866383     39.732765
     -3.998999     19.597640     19.597640     39.195279
     -3.988989     21.269939     21.269939     42.539877
     -3.978979     24.611498     24.611498     49.222997
     -3.968969     29.213047     29.213047     58.426094
     -3.958959     34.645270     34.645270     69.290540
     -3.948949     40.521997     40.521997     81.043995
     -3.938939     46.526607     46.526607     93.053213
     -3.928929     52.423675     52.423675    104.847350
     -3.918919     58.055828     58.055828    116.111656
     -3.908909     63.307688     63.307688    126.615376
     -3.898899     68.029684     68.029684    136.059369
     -3.888889     71.949737     71.949737    143.899475
     -3.878879     74.629834     74.629834    149.259669
     -3.868869     75.517649     75.517649    151.035299
     -3.858859     74.098372     74.098372    148.196744
     -3.848849     70.095688     70.095688    140.191375
     -3.838839     63.638056     63.638056    127.276112
     -3.828829     55.315285     55.315285    110.630570
     -3.818819     46.093784     46.093784     92.187569
     -3.808809     37.113355     37.113355     74.226711
     -3.798799     29.429636     29.429636     58.859271
     -3.788789     23.780582     23.780582     47.561164
     -3.778779     20.442215     20.442215     40.884429
     -3.768769     19.207610     19.207610     38.415221
     -3.758759     19.486751     19.486751     38.973502
     -3.748749     20.494300     20.494300     40.988599
     -3.738739     21.473955     21.473955     42.947911
     -3.728729     21.903009     21.903009     43.806019
     -3.718719     21.627312     21.627312     43.254625
     -3.708709     20.892273     20.892273     41.784546
     -3.698699     20.257821     20.257821     40.515643
     -3.688689     20.413174     20.413174     40.826347
     -3.678679     21.937532     21.937532     43.875065
     -3.668669     25.077542     25.077542     50.155083
     -3.658659     29.618654     29.618654     59.237308
     -3.648649     34.904549     34.904549     69.809098
     -3.638639     40.007153     40.007153     80.014306
     -3.628629     43.988700     43.988700     87.977400
     -3.618619     46.157873     46.157873     92.315747
     -3.608609     46.228467     46.228467     92.456934
     -3.598599     44.338671     44.338671     88.677343
     -3.588589     40.951481     40.951481     81.902962
     -3.578579     36.694931     36.694931     73.389862
     -3.568569     32.200270     32.200270     64.400540
     -3.558559     27.972546     27.972546     55.945092
     -3.548549     24.308603     24.308603     48.617207
     -3.538539     21.273309     21.273309     42.546617
     -3.528529     18.743654     18.743654     37.487308
     -3.518519     16.515148     16.515148     33.030296
     -3.508509     14.436262     14.436262     28.872525
     -3.498498     12.515350     12.515350     25.030700
     -3.488488     10.950447     10.950447     21.900894
     -3.478478     10.065486     10.065486     20.130973
     -3.468468     10.176907     10.176907     20.353815
     -3.458458     11.441655     11.441655     22.883309
     -3.448448     13.743857     13.743857     27.487713
     -3.438438     16.667104     16.667104     33.334208
     -3.428428     19.576082     19.576082     39.152164
     -3.418418     21.795818     21.795818     43.591635
     -3.408408     22.834988     22.834988     45.669977
     -3.398398     22.570134     22.570134     45.140268
     -3.388388     21.312469     21.312469     42.624938
     -3.378378     19.724338     19.724338     39.448675
     -3.368368     18.616873     18.616873     37.233745
     -3.358358     18.707561     18.707561     37.415122
     -3.348348     20.421015     20.421015     40.842030
     -3.338338     23.782987     23.782987     47.565973
     -3.328328     28.415022     28.415022     56.830045
     -3.318318     33.612628     33.612628     67.225257
     -3.308308     38.487773     38.487773     76.975546
     -3.298298     42.158052     42.158052     84.316104
     -3.288288     43.950596     43.950596     87.901193
     -3.278278     43.563642     43.563642     87.127284
     -3.268268     41.121588     41.121588     82.243176
     -3.258258     37.094435     37.094435     74.188871
     -3.248248     32.117821     32.117821     64.235642
     -3.238238     26.800482     26.800482     53.600965
     -3.228228     21.602571     21.602571     43.205141
     -3.218218     16.814219     16.814219     33.628438
     -3.208208     12.602821     12.602821     25.205641
     -3.198198      9.073069      9.073069     18.146139
     -3.188188      6.303540      6.303540     12.607079
     -3.178178      4.359528      4.359528      8.719057
     -3.168168      3.301319      3.301319      6.602638
     -3.158158      3.199209      3.199209      6.398418
     -3.148148      4.145309      4.145309      8.290617
     -3.138138      6.238638      6.238638     12.477277
     -3.128128      9.527271      9.527271     19.054543
     -3.118118     13.917208     13.917208     27.834416
     -3.108108     19.088272     19.088272     38.176545
     -3.098098     24.472691     24.472691     48.945382
     -3.088088     29.336294     29.336294     58.672588
     -3.078078     32.955208     32.955208     65.910416
     -3.068068     34.824352     34.824352     69.648704
     -3.058058     34.803625     34.803625     69.607249
     -3.048048     33.129650     33.129650     66.259300
     -3.038038     30.289326     30.289326     60.578651
     -3.028028     26.825886     26.825886     53.651771
     -3.018018     23.180207     23.180207     46.360415
     -3.008008     19.638942     19.638942     39.277885
     -2.997998     16.390178     16.390178     32.780356
     -2.987988     13.625889     13.625889     27.251777
     -2.977978     11.615054     11.615054     23.230107
     -2.967968     10.701643     10.701643     21.403285
     -2.957958     11.228235     11.228235     22.456471
     -2.947948     13.418973     13.418973     26.837946
     -2.937938     17.265579     17.265579     34.531159
     -2.927928     22.456037     22.456037     44.912074
     -2.917918     28.376696     28.376696     56.753393
     -2.907908     34.204560     34.204560     68.409120
     -2.897898     39.081498     39.081498     78.162996
     -2.887888     42.327722     42.327722     84.655444
     -2.877878     43.622885     43.622885     87.245770
     -2.867868     43.080352     43.080352     86.160703
     -2.857858     41.174864     41.174864     82.349727
     -2.847848     38.546174     38.546174     77.092348
     -2.837838     35.761194     35.761194     71.522387
     -2.827828     33.140127     33.140127     66.280254
     -2.817818     30.720722     30.720722     61.441445
     -2.807808     28.362997     28.362997     56.725994
     -2.797798     25.924127     25.924127     51.848253
     -2.787788     23.401304     23.401304     46.802607
     -2.777778     20.967153     20.967153     41.934306
     -2.767768     18.890501     18.890501     37.781002
     -2.757758     17.403275     17.403275     34.806551
     -2.747748     16.601219     16.601219     33.202439
     -2.737738     16.436607     16.436607     32.873214
     -2.727728     16.795175     16.795175     33.590349
     -2.717718     17.591121     17.591121     35.182243
     -2.707708     18.803794     18.803794     37.607588
     -2.697698     20.426511     20.426511     40.853023
     -2.687688     22.369777     22.369777     44.739555
     -2.677678     24.404500     24.404500     48.809000
     -2.667668     26.209631     26.209631     52.419262
     -2.657658     27.513653     27.513653     55.027306
     -2.647648     28.244380     28.244380     56.488761
     -2.637638     28.584328     28.584328     57.168656
     -2.627628     28.885902     28.885902     57.771804
     -2.617618     29.491824     29.491824     58.983648
     -2.607608     30.565088     30.565088     61.130175
     -2.597598     32.018457     32.018457     64.036914
     -2.587588     33.562202     33.562202     67.124404
     -2.577578     34.818059     34.818059     69.636118
     -2.567568     35.427911     35.427911     70.855821
     -2.557558     35.120851     35.120851     70.241702
     -2.547548     33.751218     33.751218     67.502436
     -2.537538     31.337183     31.337183     62.674365
     -2.527528     28.104502     28.104502     56.209003
     -2.517518     24.503096     24.503096     49.006192
     -2.507508     21.154142     21.154142     42.308283
     -2.497497     18.715114     18.715114     37.430228
     -2.487487     17.698579     17.698579     35.397157
     -2.477477     18.313913     18.313913     36.627826
     -2.467467     20.399505     20.399505     40.799009
     -2.457457     23.478928     23.478928     46.957857
     -2.447447     26.925163     26.925163     53.850326
     -2.437437     30.172332     30.172332     60.344665
     -2.427427     32.891672     32.891672     65.783345
     -2.417417     35.057915     35.057915     70.115830
     -2.407407     36.874041     36.874041     73.748081
     -2.397397     38.583390     38.583390     77.166780
     -2.387387     40.254464     40.254464     80.508928
     -2.377377     41.647801     41.647801     83.295602
     -2.367367     42.246736     42.246736     84.493472
     -2.357357     41.457698     41.457698     82.915396
     -2.347347     38.894683     38.894683     77.789365
     -2.337337     34.609292     34.609292     69.218583
     -2.327327     29.150234     29.150234     58.300468
     -2.317317     23.425250     23.425250     46.850500
     -2.307307     18.438331     18.438331     36.876662
     -2.297297     15.024042     15.024042     30.048085
     -2.287287     13.676931     13.676931     27.353863
     -2.277277     14.506822     14.506822     29.013645
     -2.267267     17.290425     17.290425     34.580850
     -2.257257     21.566859     21.566859     43.133718
     -2.247247     26.736000     26.736000     53.472000
     -2.237237     32.141629     32.141629     64.283258
     -2.227227     37.138100     37.138100     74.276201
     -2.217217     41.145709     41.145709     82.291419
     -2.207207     43.700986     43.700986     87.401972
     -2.197197     44.506941     44.506941     89.013882
     -2.187187     43.482893     43.482893     86.965787
     -2.177177     40.801428     40.801428     81.602857
     -2.167167     36.886613     36.886613     73.773226
     -2.157157     32.346808     32.346808     64.693616
     -2.147147     27.838946     27.838946     55.677891
     -2.137137     23.902307     23.902307     47.804614
     -2.127127     20.831026     20.831026     41.662052
     -2.117117     18.646221     18.646221     37.292443
     -2.107107     17.177108     17.177108     34.354216
     -2.097097     16.197218     16.197218     32.394435
     -2.087087     15.532369     15.532369     31.064738
     -2.077077     15.084083     15.084083     30.168165
     -2.067067     14.776193     14.776193     29.552387
     -2.057057     14.486008     14.486008     28.972017
     -2.047047     14.026084     14.026084     28.052169
     -2.037037     13.198497     13.198497     26.396994
     -2.027027     11.886602     11.886602     23.773204
     -2.017017     10.122222     10.122222     20.244444
     -2.007007      8.085312      8.085312     16.170624
     -1.996997      6.039406      6.039406     12.078813
     -1.986987      4.244123      4.244123      8.488245
     -1.976977      2.891935      2.891935      5.783869
     -1.966967      2.092777      2.092777      4.185555
     -1.956957      1.897591      1.897591      3.795182
     -1.946947      2.331773      2.331773      4.663547
     -1.936937      3.410170      3.410170      6.820339
     -1.926927      5.122073      5.122073     10.244146
     -1.916917      7.396264      7.396264     14.792528
     -1.906907     10.070593     10.070593     20.141186
     -1.896897     12.890417     12.890417     25.780833
     -1.886887     15.545494     15.545494     31.090988
     -1.876877     17.734770     17.734770     35.469541
     -1.866867     19.235358     19.235358     38.470716
     -1.856857     19.952553     19.952553     39.905107
     -1.846847     19.937369     19.937369     39.874738
     -1.836837     19.367220     19.367220     38.734440
     -1.826827     18.490879     18.490879     36.981759
     -1.816817     17.546671     17.546671     35.093342
     -1.806807     16.677528     16.677528     33.355055
     -1.796797     15.879698     15.879698     31.759397
     -1.786787     15.016638     15.016638     30.033276
     -1.776777     13.899346     13.899346     27.798691
     -1.766767     12.395219     12.395219     24.790437
     -1.756757     10.508165     10.508165     21.016329
     -1.746747      8.389776      8.389776     16.779552
     -1.736737      6.283368      6.283368     12.566736
     -1.726727      4.439666      4.439666      8.879332
     -1.716717      3.051015      3.051015      6.102031
     -1.706707      2.229451      2.229451      4.458902
     -1.696697      2.021720      2.021720      4.043439
     -1.686687      2.433262      2.433262      4.866524
     -1.676677      3.433816      3.433816      6.867632
     -1.666667      4.936176      4.936176      9.872351
     -1.656657      6.764241      6.764241     13.528482
     -1.646647      8.642109      8.642109     17.284217
     -1.636637     10.231881     10.231881     20.463761
     -1.626627     11.223557     11.223557     22.447114
