# EIG2DOS: Utility for SIESTA to obtain the electronic density of states
#  E. Artacho, Apr 1999, A. Garcia, Apr 2012
#  Nick R. Papior, Feb 2017
# ------------------------------------------
# Eigenvalues calculated from a non-polarized calculation
# Eigenvalues read from siesta.EIG
# Kpoint weights read from siesta.KP
# Using smearing parameter:   0.0500
# Using 1000 points in the energy range
# Selected bands: 1 to: 2981
# Emin, Emax in file for selected band(s):    -27.1988891    218.3636840
# Nbands, Nspin, Nk   =   2981     1     1
# E_F                 =    -4.2383 eV --> (shifted to ZERO)
# Broadening          =     0.0500 eV
#
#        E            N(up)  (=)   N(down)         Ntot
     -5.000000     33.661686     33.661686     67.323372
     -4.989990     37.729392     37.729392     75.458784
     -4.979980     41.227869     41.227869     82.455739
     -4.969970     43.624255     43.624255     87.248509
     -4.959960     44.519301     44.519301     89.038603
     -4.949950     43.776113     43.776113     87.552226
     -4.939940     41.575027     41.575027     83.150054
     -4.929930     38.386462     38.386462     76.772924
     -4.919920     34.888624     34.888624     69.777247
     -4.909910     31.864540     31.864540     63.729079
     -4.899900     30.092133     30.092133     60.184266
     -4.889890     30.215205     30.215205     60.430411
     -4.879880     32.583380     32.583380     65.166761
     -4.869870     37.086456     37.086456     74.172912
     -4.859860     43.058483     43.058483     86.116966
     -4.849850     49.341947     49.341947     98.683895
     -4.839840     54.550763     54.550763    109.101526
     -4.829830     57.468663     57.468663    114.937327
     -4.819820     57.428752     57.428752    114.857503
     -4.809810     54.506472     54.506472    109.012944
     -4.799800     49.441396     49.441396     98.882792
     -4.789790     43.336137     43.336137     86.672273
     -4.779780     37.281629     37.281629     74.563258
     -4.769770     32.068958     32.068958     64.137916
     -4.759760     28.074746     28.074746     56.149493
     -4.749750     25.308016     25.308016     50.616032
     -4.739740     23.542967     23.542967     47.085935
     -4.729730     22.456797     22.456797     44.913593
     -4.719720     21.725320     21.725320     43.450641
     -4.709710     21.069312     21.069312     42.138625
     -4.699700     20.270938     20.270938     40.541876
     -4.689690     19.188150     19.188150     38.376300
     -4.679680     17.787203     17.787203     35.574407
     -4.669670     16.193338     16.193338     32.386676
     -4.659660     14.735990     14.735990     29.471979
     -4.649650     13.950924     13.950924     27.901848
     -4.639640     14.506720     14.506720     29.013440
     -4.629630     17.046392     17.046392     34.092783
     -4.619620     21.968960     21.968960     43.937920
     -4.609610     29.211461     29.211461     58.422921
     -4.599600     38.117790     38.117790     76.235579
     -4.589590     47.478951     47.478951     94.957902
     -4.579580     55.782841     55.782841    111.565683
     -4.569570     61.624977     61.624977    123.249954
     -4.559560     64.142404     64.142404    128.284809
     -4.549550     63.296309     63.296309    126.592618
     -4.539540     59.877319     59.877319    119.754637
     -4.529530     55.223216     55.223216    110.446433
     -4.519520     50.761769     50.761769    101.523539
     -4.509510     47.559029     47.559029     95.118059
     -4.499499     46.037598     46.037598     92.075195
     -4.489489     45.946408     45.946408     91.892815
     -4.479479     46.557921     46.557921     93.115843
     -4.469469     46.987314     46.987314     93.974628
     -4.459459     46.500850     46.500850     93.001701
     -4.449449     44.710474     44.710474     89.420947
     -4.439439     41.617348     41.617348     83.234696
     -4.429429     37.534396     37.534396     75.068792
     -4.419419     32.955724     32.955724     65.911448
     -4.409409     28.436230     28.436230     56.872461
     -4.399399     24.508647     24.508647     49.017293
     -4.389389     21.626282     21.626282     43.252565
     -4.379379     20.105619     20.105619     40.211238
     -4.369369     20.061458     20.061458     40.122916
     -4.359359     21.359973     21.359973     42.719945
     -4.349349     23.631074     23.631074     47.262148
     -4.339339     26.362824     26.362824     52.725647
     -4.329329     29.056850     29.056850     58.113700
     -4.319319     31.384860     31.384860     62.769719
     -4.309309     33.279225     33.279225     66.558450
     -4.299299     34.919064     34.919064     69.838127
     -4.289289     36.617797     36.617797     73.235594
     -4.279279     38.654545     38.654545     77.309090
     -4.269269     41.108524     41.108524     82.217049
     -4.259259     43.756143     43.756143     87.512286
     -4.249249     46.078957     46.078957     92.157914
     -4.239239     47.402424     47.402424     94.804847
     -4.229229     47.135597     47.135597     94.271195
     -4.219219     45.024289     45.024289     90.048579
     -4.209209     41.300594     41.300594     82.601188
     -4.199199     36.643283     36.643283     73.286567
     -4.189189     31.952606     31.952606     63.905212
     -4.179179     28.040502     28.040502     56.081005
     -4.169169     25.381193     25.381193     50.762387
     -4.159159     24.029696     24.029696     48.059393
     -4.149149     23.723625     23.723625     47.447249
     -4.139139     24.094211     24.094211     48.188421
     -4.129129     24.871711     24.871711     49.743422
     -4.119119     25.987750     25.987750     51.975499
     -4.109109     27.533559     27.533559     55.067118
     -4.099099     29.601813     29.601813     59.203626
     -4.089089     32.097657     32.097657     64.195314
     -4.079079     34.629264     34.629264     69.258527
     -4.069069     36.560504     36.560504     73.121009
     -4.059059     37.228530     37.228530     74.457060
     -4.049049     36.232803     36.232803     72.465606
     -4.039039     33.648408     33.648408     67.296817
     -4.029029     30.047082     30.047082     60.094163
     -4.019019     26.311814     26.311814     52.623628
     -4.009009     23.341328     23.341328     46.682657
     -3.998999     21.789296     21.789296     43.578592
     -3.988989     21.944428     21.944428     43.888856
     -3.978979     23.765604     23.765604     47.531208
     -3.968969     27.005494     27.005494     54.010988
     -3.958959     31.334149     31.334149     62.668298
     -3.948949     36.411385     36.411385     72.822770
     -3.938939     41.913339     41.913339     83.826678
     -3.928929     47.548127     47.548127     95.096254
     -3.918919     53.081039     53.081039    106.162079
     -3.908909     58.353432     58.353432    116.706864
     -3.898899     63.260563     63.260563    126.521127
     -3.888889     67.673765     67.673765    135.347530
     -3.878879     71.338125     71.338125    142.676251
     -3.868869     73.812363     73.812363    147.624726
     -3.858859     74.512817     74.512817    149.025635
     -3.848849     72.875843     72.875843    145.751686
     -3.838839     68.587478     68.587478    137.174955
     -3.828829     61.782923     61.782923    123.565847
     -3.818819     53.118681     53.118681    106.237363
     -3.808809     43.669904     43.669904     87.339808
     -3.798799     34.680198     34.680198     69.360397
     -3.788789     27.252464     27.252464     54.504929
     -3.778779     22.087926     22.087926     44.175853
     -3.768769     19.352727     19.352727     38.705455
     -3.758759     18.698310     18.698310     37.396621
     -3.748749     19.411623     19.411623     38.823245
     -3.738739     20.641428     20.641428     41.282855
     -3.728729     21.638825     21.638825     43.277650
     -3.718719     21.955384     21.955384     43.910768
     -3.708709     21.554030     21.554030     43.108061
     -3.698699     20.804262     20.804262     41.608524
     -3.688689     20.356389     20.356389     40.712778
     -3.678679     20.920024     20.920024     41.840047
     -3.668669     23.005497     23.005497     46.010993
     -3.658659     26.711187     26.711187     53.422374
     -3.648649     31.638442     31.638442     63.276884
     -3.638639     36.977723     36.977723     73.955445
     -3.628629     41.742304     41.742304     83.484607
     -3.618619     45.059839     45.059839     90.119679
     -3.608609     46.406287     46.406287     92.812575
     -3.598599     45.700091     45.700091     91.400183
     -3.588589     43.247071     43.247071     86.494142
     -3.578579     39.591087     39.591087     79.182175
     -3.568569     35.345051     35.345051     70.690102
     -3.558559     31.052668     31.052668     62.105336
     -3.548549     27.096616     27.096616     54.193231
     -3.538539     23.653484     23.653484     47.306967
     -3.528529     20.699883     20.699883     41.399767
     -3.518519     18.074915     18.074915     36.149830
     -3.508509     15.586323     15.586323     31.172645
     -3.498498     13.121581     13.121581     26.243163
     -3.488488     10.715790     10.715790     21.431579
     -3.478478      8.548055      8.548055     17.096110
     -3.468468      6.874005      6.874005     13.748011
     -3.458458      5.928862      5.928862     11.857723
     -3.448448      5.839193      5.839193     11.678385
     -3.438438      6.568800      6.568800     13.137600
     -3.428428      7.910879      7.910879     15.821759
     -3.418418      9.531399      9.531399     19.062799
     -3.408408     11.060871     11.060871     22.121741
     -3.398398     12.215118     12.215118     24.430235
     -3.388388     12.904937     12.904937     25.809875
     -3.378378     13.286659     13.286659     26.573318
     -3.368368     13.724266     13.724266     27.448532
     -3.358358     14.672986     14.672986     29.345972
     -3.348348     16.529752     16.529752     33.059503
     -3.338338     19.504217     19.504217     39.008435
     -3.328328     23.543342     23.543342     47.086685
     -3.318318     28.314645     28.314645     56.629290
     -3.308308     33.242243     33.242243     66.484486
     -3.298298     37.597498     37.597498     75.194996
     -3.288288     40.649021     40.649021     81.298042
     -3.278278     41.852308     41.852308     83.704616
     -3.268268     41.016366     41.016366     82.032732
     -3.258258     38.364255     38.364255     76.728510
     -3.248248     34.441415     34.441415     68.882831
     -3.238238     29.907816     29.907816     59.815632
     -3.228228     25.319690     25.319690     50.639381
     -3.218218     21.008912     21.008912     42.017824
     -3.208208     17.100688     17.100688     34.201377
     -3.198198     13.625724     13.625724     27.251449
     -3.188188     10.641499     10.641499     21.282997
     -3.178178      8.297476      8.297476     16.594952
     -3.168168      6.830669      6.830669     13.661337
     -3.158158      6.516125      6.516125     13.032249
     -3.148148      7.601030      7.601030     15.202061
     -3.138138     10.234465     10.234465     20.468929
     -3.128128     14.394160     14.394160     28.788320
     -3.118118     19.820329     19.820329     39.640657
     -3.108108     25.985122     25.985122     51.970244
     -3.098098     32.133094     32.133094     64.266189
     -3.088088     37.409087     37.409087     74.818175
     -3.078078     41.050337     41.050337     82.100674
     -3.068068     42.580657     42.580657     85.161313
     -3.058058     41.930310     41.930310     83.860620
     -3.048048     39.428271     39.428271     78.856542
     -3.038038     35.667003     35.667003     71.334006
     -3.028028     31.298644     31.298644     62.597288
     -3.018018     26.853592     26.853592     53.707185
     -3.008008     22.657600     22.657600     45.315199
     -2.997998     18.868076     18.868076     37.736152
     -2.987988     15.587037     15.587037     31.174075
     -2.977978     12.974391     12.974391     25.948782
     -2.967968     11.296886     11.296886     22.593771
     -2.957958     10.890102     10.890102     21.780204
     -2.947948     12.053467     12.053467     24.106935
     -2.937938     14.921331     14.921331     29.842663
     -2.927928     19.356386     19.356386     38.712772
     -2.917918     24.904925     24.904925     49.809850
     -2.907908     30.840959     30.840959     61.681917
     -2.897898     36.304112     36.304112     72.608223
     -2.887888     40.502714     40.502714     81.005429
     -2.877878     42.919130     42.919130     85.838261
     -2.867868     43.439590     43.439590     86.879180
     -2.857858     42.351366     42.351366     84.702733
     -2.847848     40.203089     40.203089     80.406178
     -2.837838     37.585603     37.585603     75.171205
     -2.827828     34.928674     34.928674     69.857348
     -2.817818     32.400767     32.400767     64.801533
     -2.807808     29.946881     29.946881     59.893761
     -2.797798     27.429538     27.429538     54.859075
     -2.787788     24.787709     24.787709     49.575419
     -2.777778     22.125197     22.125197     44.250394
     -2.767768     19.685129     19.685129     39.370258
     -2.757758     17.735020     17.735020     35.470041
     -2.747748     16.438221     16.438221     32.876443
     -2.737738     15.792445     15.792445     31.584889
     -2.727728     15.671101     15.671101     31.342203
     -2.717718     15.935422     15.935422     31.870845
     -2.707708     16.537607     16.537607     33.075213
     -2.697698     17.540104     17.540104     35.080208
     -2.687688     19.033290     19.033290     38.066580
     -2.677678     21.006998     21.006998     42.013996
     -2.667668     23.270116     23.270116     46.540231
     -2.657658     25.486370     25.486370     50.972741
     -2.647648     27.317375     27.317375     54.634751
     -2.637638     28.587847     28.587847     57.175693
     -2.627628     29.367676     29.367676     58.735352
     -2.617618     29.917980     29.917980     59.835961
     -2.607608     30.536861     30.536861     61.073722
     -2.597598     31.401287     31.401287     62.802574
     -2.587588     32.492091     32.492091     64.984181
     -2.577578     33.622536     33.622536     67.245073
     -2.567568     34.523520     34.523520     69.047040
     -2.557558     34.921467     34.921467     69.842934
     -2.547548     34.582185     34.582185     69.164371
     -2.537538     33.342138     33.342138     66.684276
     -2.527528     31.159995     31.159995     62.319989
     -2.517518     28.187089     28.187089     56.374177
     -2.507508     24.811137     24.811137     49.622273
     -2.497497     21.617921     21.617921     43.235842
     -2.487487     19.253877     19.253877     38.507753
     -2.477477     18.232064     18.232064     36.464128
     -2.467467     18.763553     18.763553     37.527107
     -2.457457     20.691604     20.691604     41.383208
     -2.447447     23.561598     23.561598     47.123195
     -2.437437     26.799134     26.799134     53.598269
     -2.427427     29.919789     29.919789     59.839578
     -2.417417     32.678141     32.678141     65.356282
     -2.407407     35.089356     35.089356     70.178713
     -2.397397     37.314928     37.314928     74.629856
     -2.387387     39.469803     39.469803     78.939607
     -2.377377     41.449897     41.449897     82.899795
     -2.367367     42.874797     42.874797     85.749594
     -2.357357     43.188874     43.188874     86.377748
     -2.347347     41.886658     41.886658     83.773315
     -2.337337     38.762420     38.762420     77.524841
     -2.327327     34.065704     34.065704     68.131408
     -2.317317     28.487344     28.487344     56.974688
     -2.307307     22.982305     22.982305     45.964611
     -2.297297     18.509471     18.509471     37.018942
     -2.287287     15.793982     15.793982     31.587964
     -2.277277     15.188515     15.188515     30.377030
     -2.267267     16.653649     16.653649     33.307299
     -2.257257     19.830516     19.830516     39.661031
     -2.247247     24.159725     24.159725     48.319450
     -2.237237     29.004661     29.004661     58.009321
     -2.227227     33.750807     33.750807     67.501614
     -2.217217     37.867498     37.867498     75.734996
     -2.207207     40.933510     40.933510     81.867021
     -2.197197     42.642716     42.642716     85.285433
     -2.187187     42.813838     42.813838     85.627675
     -2.177177     41.420141     41.420141     82.840283
     -2.167167     38.629822     38.629822     77.259645
     -2.157157     34.820808     34.820808     69.641616
     -2.147147     30.528950     30.528950     61.057901
     -2.137137     26.319307     26.319307     52.638613
     -2.127127     22.622044     22.622044     45.244087
     -2.117117     19.610303     19.610303     39.220606
     -2.107107     17.185658     17.185658     34.371316
     -2.097097     15.079678     15.079678     30.159356
     -2.087087     13.014964     13.014964     26.029928
     -2.077077     10.840035     10.840035     21.680070
     -2.067067      8.576722      8.576722     17.153443
     -2.057057      6.375133      6.375133     12.750265
     -2.047047      4.420072      4.420072      8.840144
     -2.037037      2.846220      2.846220      5.692441
     -2.027027      1.698412      1.698412      3.396823
     -2.017017      0.939917      0.939917      1.879833
     -2.007007      0.488680      0.488680      0.977360
     -1.996997      0.257741      0.257741      0.515481
     -1.986987      0.185909      0.185909      0.371817
     -1.976977      0.256868      0.256868      0.513735
     -1.966967      0.511040      0.511040      1.022079
     -1.956957      1.052706      1.052706      2.105413
     -1.946947      2.047876      2.047876      4.095752
     -1.936937      3.701757      3.701757      7.403515
     -1.926927      6.205069      6.205069     12.410137
     -1.916917      9.650321      9.650321     19.300642
     -1.906907     13.940601     13.940601     27.881202
     -1.896897     18.732808     18.732808     37.465616
     -1.886887     23.458380     23.458380     46.916761
     -1.876877     27.438238     27.438238     54.876476
     -1.866867     30.063962     30.063962     60.127925
     -1.856857     30.979391     30.979391     61.958782
     -1.846847     30.189778     30.189778     60.379556
     -1.836837     28.054371     28.054371     56.108741
     -1.826827     25.165710     25.165710     50.331419
     -1.816817     22.161057     22.161057     44.322115
     -1.806807     19.532870     19.532870     39.065740
     -1.796797     17.503099     17.503099     35.006198
     -1.786787     16.002872     16.002872     32.005745
     -1.776777     14.759841     14.759841     29.519683
     -1.766767     13.451908     13.451908     26.903816
     -1.756757     11.858157     11.858157     23.716313
     -1.746747      9.943088      9.943088     19.886177
     -1.736737      7.848295      7.848295     15.696591
     -1.726727      5.814196      5.814196     11.628391
     -1.716717      4.084149      4.084149      8.168297
     -1.706707      2.839053      2.839053      5.678105
     -1.696697      2.180616      2.180616      4.361232
     -1.686687      2.148471      2.148471      4.296943
     -1.676677      2.739992      2.739992      5.479985
     -1.666667      3.908377      3.908377      7.816755
     -1.656657      5.537144      5.537144     11.074288
     -1.646647      7.413082      7.413082     14.826164
     -1.636637      9.230320      9.230320     18.460639
     -1.626627     10.647104     10.647104     21.294208
