# EIG2DOS: Utility for SIESTA to obtain the electronic density of states
#  E. Artacho, Apr 1999, A. Garcia, Apr 2012
#  Nick R. Papior, Feb 2017
# ------------------------------------------
# Eigenvalues calculated from a non-polarized calculation
# Eigenvalues read from siesta.EIG
# Kpoint weights read from siesta.KP
# Using smearing parameter:   0.0500
# Using 1000 points in the energy range
# Selected bands: 1 to: 2981
# Emin, Emax in file for selected band(s):    -27.1075373    218.3301690
# Nbands, Nspin, Nk   =   2981     1     1
# E_F                 =    -4.2796 eV --> (shifted to ZERO)
# Broadening          =     0.0500 eV
#
#        E            N(up)  (=)   N(down)         Ntot
     -5.000000     39.585529     39.585529     79.171059
     -4.989990     41.366817     41.366817     82.733633
     -4.979980     42.930105     42.930105     85.860211
     -4.969970     43.963786     43.963786     87.927572
     -4.959960     44.130106     44.130106     88.260213
     -4.949950     43.209443     43.209443     86.418887
     -4.939940     41.204566     41.204566     82.409131
     -4.929930     38.375692     38.375692     76.751385
     -4.919920     35.213441     35.213441     70.426881
     -4.909910     32.372731     32.372731     64.745463
     -4.899900     30.580159     30.580159     61.160319
     -4.889890     30.506554     30.506554     61.013108
     -4.879880     32.594177     32.594177     65.188354
     -4.869870     36.861422     36.861422     73.722844
     -4.859860     42.761004     42.761004     85.522009
     -4.849850     49.194514     49.194514     98.389028
     -4.839840     54.745057     54.745057    109.490115
     -4.829830     58.084096     58.084096    116.168191
     -4.819820     58.398072     58.398072    116.796143
     -4.809810     55.643751     55.643751    111.287501
     -4.799800     50.515196     50.515196    101.030392
     -4.789790     44.150369     44.150369     88.300739
     -4.779780     37.729867     37.729867     75.459734
     -4.769770     32.148621     32.148621     64.297243
     -4.759760     27.868751     27.868751     55.737501
     -4.749750     24.950424     24.950424     49.900848
     -4.739740     23.181935     23.181935     46.363870
     -4.729730     22.221426     22.221426     44.442851
     -4.719720     21.700052     21.700052     43.400104
     -4.709710     21.279512     21.279512     42.559024
     -4.699700     20.681311     20.681311     41.362621
     -4.689690     19.709562     19.709562     39.419124
     -4.679680     18.281461     18.281461     36.562921
     -4.669670     16.465685     16.465685     32.931369
     -4.659660     14.513969     14.513969     29.027938
     -4.649650     12.862393     12.862393     25.724786
     -4.639640     12.082246     12.082246     24.164493
     -4.629630     12.773930     12.773930     25.547860
     -4.619620     15.414726     15.414726     30.829452
     -4.609610     20.188914     20.188914     40.377828
     -4.599600     26.846959     26.846959     53.693917
     -4.589590     34.654602     34.654602     69.309204
     -4.579580     42.487256     42.487256     84.974512
     -4.569570     49.084649     49.084649     98.169298
     -4.559560     53.409955     53.409955    106.819910
     -4.549550     54.990203     54.990203    109.980407
     -4.539540     54.095324     54.095324    108.190647
     -4.529530     51.664838     51.664838    103.329676
     -4.519520     48.994604     48.994604     97.989207
     -4.509510     47.298948     47.298948     94.597895
     -4.499499     47.313604     47.313604     94.627208
     -4.489489     49.080737     49.080737     98.161474
     -4.479479     51.977249     51.977249    103.954498
     -4.469469     54.953660     54.953660    109.907321
     -4.459459     56.882929     56.882929    113.765857
     -4.449449     56.896731     56.896731    113.793462
     -4.439439     54.609146     54.609146    109.218292
     -4.429429     50.179036     50.179036    100.358071
     -4.419419     44.221495     44.221495     88.442991
     -4.409409     37.623448     37.623448     75.246897
     -4.399399     31.332782     31.332782     62.665565
     -4.389389     26.174131     26.174131     52.348262
     -4.379379     22.715191     22.715191     45.430381
     -4.369369     21.188222     21.188222     42.376445
     -4.359359     21.470803     21.470803     42.941606
     -4.349349     23.135800     23.135800     46.271601
     -4.339339     25.573626     25.573626     51.147251
     -4.329329     28.164604     28.164604     56.329208
     -4.319319     30.451081     30.451081     60.902162
     -4.309309     32.250147     32.250147     64.500294
     -4.299299     33.667800     33.667800     67.335599
     -4.289289     35.012439     35.012439     70.024878
     -4.279279     36.639054     36.639054     73.278108
     -4.269269     38.773435     38.773435     77.546870
     -4.259259     41.370780     41.370780     82.741560
     -4.249249     44.060832     44.060832     88.121664
     -4.239239     46.217631     46.217631     92.435261
     -4.229229     47.154564     47.154564     94.309129
     -4.219219     46.386360     46.386360     92.772720
     -4.209209     43.848085     43.848085     87.696170
     -4.199199     39.959443     39.959443     79.918887
     -4.189189     35.489104     35.489104     70.978208
     -4.179179     31.277438     31.277438     62.554876
     -4.169169     27.951993     27.951993     55.903987
     -4.159159     25.768391     25.768391     51.536781
     -4.149149     24.633873     24.633873     49.267746
     -4.139139     24.273048     24.273048     48.546096
     -4.129129     24.432654     24.432654     48.865308
     -4.119119     25.018964     25.018964     50.037927
     -4.109109     26.105685     26.105685     52.211371
     -4.099099     27.814966     27.814966     55.629933
     -4.089089     30.135538     30.135538     60.271076
     -4.079079     32.779825     32.779825     65.559650
     -4.069069     35.175451     35.175451     70.350901
     -4.059059     36.626421     36.626421     73.252843
     -4.049049     36.586086     36.586086     73.172173
     -4.039039     34.909954     34.909954     69.819908
     -4.029029     31.954142     31.954142     63.908283
     -4.019019     28.464777     28.464777     56.929554
     -4.009009     25.317812     25.317812     50.635624
     -3.998999     23.243897     23.243897     46.487794
     -3.988989     22.663062     22.663062     45.326124
     -3.978979     23.673107     23.673107     47.346215
     -3.968969     26.144464     26.144464     52.288929
     -3.958959     29.833165     29.833165     59.666329
     -3.948949     34.449493     34.449493     68.898987
     -3.938939     39.679830     39.679830     79.359659
     -3.928929     45.200417     45.200417     90.400835
     -3.918919     50.714642     50.714642    101.429285
     -3.908909     56.003579     56.003579    112.007158
     -3.898899     60.944866     60.944866    121.889731
     -3.888889     65.461164     65.461164    130.922327
     -3.878879     69.406095     69.406095    138.812189
     -3.868869     72.450205     72.450205    144.900410
     -3.858859     74.052025     74.052025    148.104049
     -3.848849     73.568629     73.568629    147.137258
     -3.838839     70.487762     70.487762    140.975524
     -3.828829     64.688461     64.688461    129.376922
     -3.818819     56.604678     56.604678    113.209355
     -3.808809     47.200469     47.200469     94.400938
     -3.798799     37.750521     37.750521     75.501043
     -3.788789     29.508433     29.508433     59.016867
     -3.778779     23.388817     23.388817     46.777634
     -3.768769     19.770432     19.770432     39.540864
     -3.758759     18.467163     18.467163     36.934325
     -3.748749     18.850304     18.850304     37.700608
     -3.738739     20.066866     20.066866     40.133733
     -3.728729     21.288416     21.288416     42.576833
     -3.718719     21.931658     21.931658     43.863316
     -3.708709     21.803811     21.803811     43.607621
     -3.698699     21.139592     21.139592     42.279184
     -3.688689     20.515568     20.515568     41.031135
     -3.678679     20.655170     20.655170     41.310340
     -3.668669     22.171743     22.171743     44.343486
     -3.658659     25.327339     25.327339     50.654677
     -3.648649     29.894871     29.894871     59.789743
     -3.638639     35.185582     35.185582     70.371163
     -3.628629     40.242450     40.242450     80.484900
     -3.618619     44.127535     44.127535     88.255070
     -3.608609     46.187600     46.187600     92.375199
     -3.598599     46.197486     46.197486     92.394971
     -3.588589     44.347052     44.347052     88.694104
     -3.578579     41.111768     41.111768     82.223535
     -3.568569     37.082996     37.082996     74.165991
     -3.558559     32.819707     32.819707     65.639414
     -3.548549     28.746301     28.746301     57.492601
     -3.538539     25.097499     25.097499     50.194998
     -3.528529     21.911202     21.911202     43.822404
     -3.518519     19.074704     19.074704     38.149407
     -3.508509     16.417959     16.417959     32.835918
     -3.498498     13.822452     13.822452     27.644903
     -3.488488     11.299022     11.299022     22.598044
     -3.478478      9.000474      9.000474     18.000947
     -3.468468      7.168038      7.168038     14.336075
     -3.458458      6.040777      6.040777     12.081554
     -3.448448      5.765825      5.765825     11.531651
     -3.438438      6.337424      6.337424     12.674847
     -3.428428      7.579103      7.579103     15.158207
     -3.418418      9.175487      9.175487     18.350973
     -3.408408     10.753504     10.753504     21.507008
     -3.398398     11.998191     11.998191     23.996382
     -3.388388     12.767081     12.767081     25.534163
     -3.378378     13.155197     13.155197     26.310395
     -3.368368     13.475907     13.475907     26.951814
     -3.358358     14.160055     14.160055     28.320110
     -3.348348     15.614395     15.614395     31.228790
     -3.338338     18.093698     18.093698     36.187396
     -3.328328     21.621390     21.621390     43.242779
     -3.318318     25.961005     25.961005     51.922010
     -3.308308     30.625157     30.625157     61.250313
     -3.298298     34.921584     34.921584     69.843168
     -3.288288     38.056238     38.056238     76.112475
     -3.278278     39.306687     39.306687     78.613374
     -3.268268     38.234314     38.234314     76.468628
     -3.258258     34.852091     34.852091     69.704182
     -3.248248     29.656596     29.656596     59.313193
     -3.238238     23.489679     23.489679     46.979358
     -3.228228     17.284395     17.284395     34.568789
     -3.218218     11.809567     11.809567     23.619134
     -3.208208      7.518296      7.518296     15.036592
     -3.198198      4.540687      4.540687      9.081374
     -3.188188      2.788258      2.788258      5.576517
     -3.178178      2.098865      2.098865      4.197730
     -3.168168      2.355579      2.355579      4.711159
     -3.158158      3.542277      3.542277      7.084555
     -3.148148      5.729588      5.729588     11.459176
     -3.138138      9.006402      9.006402     18.012805
     -3.128128     13.385002     13.385002     26.770005
     -3.118118     18.714915     18.714915     37.429829
     -3.108108     24.640467     24.640467     49.280933
     -3.098098     30.626099     30.626099     61.252197
     -3.088088     36.051638     36.051638     72.103276
     -3.078078     40.352798     40.352798     80.705596
     -3.068068     43.159797     43.159797     86.319594
     -3.058058     44.379402     44.379402     88.758805
     -3.048048     44.180902     44.180902     88.361804
     -3.038038     42.885628     42.885628     85.771256
     -3.028028     40.809592     40.809592     81.619185
     -3.018018     38.141482     38.141482     76.282965
     -3.008008     34.925984     34.925984     69.851968
     -2.997998     31.163193     31.163193     62.326387
     -2.987988     26.963110     26.963110     53.926221
     -2.977978     22.658966     22.658966     45.317932
     -2.967968     18.808611     18.808611     37.617222
     -2.957958     16.078295     16.078295     32.156590
     -2.947948     15.061146     15.061146     30.122292
     -2.937938     16.101206     16.101206     32.202412
     -2.927928     19.176725     19.176725     38.353451
     -2.917918     23.869404     23.869404     47.738808
     -2.907908     29.427437     29.427437     58.854875
     -2.897898     34.916571     34.916571     69.833142
     -2.887888     39.432673     39.432673     78.865346
     -2.877878     42.321306     42.321306     84.642613
     -2.867868     43.331406     43.331406     86.662813
     -2.857858     42.641959     42.641959     85.283919
     -2.847848     40.746642     40.746642     81.493285
     -2.837838     38.242417     38.242417     76.484834
     -2.827828     35.611952     35.611952     71.223904
     -2.817818     33.091541     33.091541     66.183082
     -2.807808     30.673130     30.673130     61.346260
     -2.797798     28.222649     28.222649     56.445298
     -2.787788     25.641000     25.641000     51.282000
     -2.777778     22.977769     22.977769     45.955537
     -2.767768     20.439189     20.439189     40.878378
     -2.757758     18.294106     18.294106     36.588212
     -2.747748     16.740275     16.740275     33.480550
     -2.737738     15.815006     15.815006     31.630012
     -2.727728     15.405434     15.405434     30.810869
     -2.717718     15.350487     15.350487     30.700973
     -2.707708     15.566899     15.566899     31.133799
     -2.697698     16.113662     16.113662     32.227323
     -2.687688     17.146915     17.146915     34.293831
     -2.677678     18.789059     18.789059     37.578118
     -2.667668     20.995896     20.995896     41.991793
     -2.657658     23.513106     23.513106     47.026211
     -2.647648     25.959737     25.959737     51.919473
     -2.637638     27.994571     27.994571     55.989143
     -2.627628     29.465593     29.465593     58.931185
     -2.617618     30.452911     30.452911     60.905822
     -2.607608     31.185593     31.185593     62.371186
     -2.597598     31.893170     31.893170     63.786341
     -2.587588     32.685489     32.685489     65.370978
     -2.577578     33.519581     33.519581     67.039161
     -2.567568     34.242948     34.242948     68.485897
     -2.557558     34.657600     34.657600     69.315201
     -2.547548     34.560887     34.560887     69.121774
     -2.537538     33.767172     33.767172     67.534344
     -2.527528     32.146644     32.146644     64.293288
     -2.517518     29.700908     29.700908     59.401815
     -2.507508     26.645260     26.645260     53.290520
     -2.497497     23.433297     23.433297     46.866594
     -2.487487     20.675958     20.675958     41.351916
     -2.477477     18.966296     18.966296     37.932592
     -2.467467     18.681345     18.681345     37.362690
     -2.457457     19.853516     19.853516     39.707031
     -2.447447     22.174354     22.174354     44.348708
     -2.437437     25.131263     25.131263     50.262527
     -2.427427     28.214863     28.214863     56.429725
     -2.417417     31.100472     31.100472     62.200945
     -2.407407     33.718377     33.718377     67.436753
     -2.397397     36.180895     36.180895     72.361791
     -2.387387     38.606041     38.606041     77.212083
     -2.377377     40.932127     40.932127     81.864255
     -2.367367     42.826213     42.826213     85.652425
     -2.357357     43.745582     43.745582     87.491163
     -2.347347     43.136169     43.136169     86.272339
     -2.337337     40.682139     40.682139     81.364277
     -2.327327     36.492119     36.492119     72.984238
     -2.317317     31.135425     31.135425     62.270850
     -2.307307     25.511413     25.511413     51.022825
     -2.297297     20.609169     20.609169     41.218337
     -2.287287     17.254196     17.254196     34.508391
     -2.277277     15.928526     15.928526     31.857051
     -2.267267     16.706305     16.706305     33.412609
     -2.257257     19.298573     19.298573     38.597146
     -2.247247     23.170477     23.170477     46.340954
     -2.237237     27.684465     27.684465     55.368930
     -2.227227     32.226708     32.226708     64.453415
     -2.217217     36.286079     36.286079     72.572157
     -2.207207     39.475731     39.475731     78.951463
     -2.197197     41.514182     41.514182     83.028365
     -2.187187     42.203637     42.203637     84.407275
     -2.177177     41.441612     41.441612     82.883224
     -2.167167     39.271952     39.271952     78.543904
     -2.157157     35.939398     35.939398     71.878797
     -2.147147     31.889667     31.889667     63.779333
     -2.137137     27.678217     27.678217     55.356434
     -2.127127     23.807975     23.807975     47.615950
     -2.117117     20.570731     20.570731     41.141461
     -2.107107     17.976755     17.976755     35.953509
     -2.097097     15.810843     15.810843     31.621685
     -2.087087     13.780631     13.780631     27.561262
     -2.077077     11.673767     11.673767     23.347533
     -2.067067      9.445152      9.445152     18.890303
     -2.057057      7.205325      7.205325     14.410650
     -2.047047      5.138501      5.138501     10.277003
     -2.037037      3.407781      3.407781      6.815561
     -2.027027      2.095336      2.095336      4.190671
     -2.017017      1.193341      1.193341      2.386682
     -2.007007      0.632140      0.632140      1.264279
     -1.996997      0.320812      0.320812      0.641624
     -1.986987      0.180985      0.180985      0.361971
     -1.976977      0.167093      0.167093      0.334186
     -1.966967      0.275501      0.275501      0.551002
     -1.956957      0.546998      0.546998      1.093997
     -1.946947      1.063682      1.063682      2.127363
     -1.936937      1.936540      1.936540      3.873079
     -1.926927      3.278707      3.278707      6.557413
     -1.916917      5.164034      5.164034     10.328069
     -1.906907      7.580300      7.580300     15.160600
     -1.896897     10.395435     10.395435     20.790871
     -1.886887     13.356268     13.356268     26.712536
     -1.876877     16.128998     16.128998     32.257996
     -1.866867     18.373450     18.373450     36.746899
     -1.856857     19.828712     19.828712     39.657423
     -1.846847     20.383246     20.383246     40.766491
     -1.836837     20.107322     20.107322     40.214645
     -1.826827     19.234995     19.234995     38.469991
     -1.816817     18.095151     18.095151     36.190303
     -1.806807     17.008415     17.008415     34.016829
     -1.796797     16.186231     16.186231     32.372462
     -1.786787     15.677378     15.677378     31.354756
     -1.776777     15.390778     15.390778     30.781555
     -1.766767     15.182756     15.182756     30.365512
     -1.756757     14.955774     14.955774     29.911549
     -1.746747     14.706023     14.706023     29.412045
     -1.736737     14.491601     14.491601     28.983202
     -1.726727     14.349870     14.349870     28.699741
     -1.716717     14.230519     14.230519     28.461039
     -1.706707     14.000593     14.000593     28.001186
     -1.696697     13.525617     13.525617     27.051235
     -1.686687     12.774591     12.774591     25.549181
     -1.676677     11.875973     11.875973     23.751946
     -1.666667     11.080378     11.080378     22.160755
     -1.656657     10.642984     10.642984     21.285967
     -1.646647     10.687733     10.687733     21.375465
     -1.636637     11.127692     11.127692     22.255384
     -1.626627     11.687139     11.687139     23.374277
