# EIG2DOS: Utility for SIESTA to obtain the electronic density of states
#  E. Artacho, Apr 1999, A. Garcia, Apr 2012
#  Nick R. Papior, Feb 2017
# ------------------------------------------
# Eigenvalues calculated from a non-polarized calculation
# Eigenvalues read from siesta.EIG
# Kpoint weights read from siesta.KP
# Using smearing parameter:   0.0500
# Using 1000 points in the energy range
# Selected bands: 1 to: 2981
# Emin, Emax in file for selected band(s):    -27.3685340    218.3963380
# Nbands, Nspin, Nk   =   2981     1     1
# E_F                 =    -4.2162 eV --> (shifted to ZERO)
# Broadening          =     0.0500 eV
#
#        E            N(up)  (=)   N(down)         Ntot
     -5.000000     32.981292     32.981292     65.962584
     -4.989990     37.554749     37.554749     75.109499
     -4.979980     41.661948     41.661948     83.323896
     -4.969970     44.620145     44.620145     89.240290
     -4.959960     45.891128     45.891128     91.782255
     -4.949950     45.260643     45.260643     90.521287
     -4.939940     42.918791     42.918791     85.837582
     -4.929930     39.423363     39.423363     78.846726
     -4.919920     35.579886     35.579886     71.159771
     -4.909910     32.290326     32.290326     64.580651
     -4.899900     30.402269     30.402269     60.804537
     -4.889890     30.559088     30.559088     61.118176
     -4.879880     33.045683     33.045683     66.091366
     -4.869870     37.655584     37.655584     75.311168
     -4.859860     43.646187     43.646187     87.292374
     -4.849850     49.853169     49.853169     99.706339
     -4.839840     54.978292     54.978292    109.956585
     -4.829830     57.970569     57.970569    115.941139
     -4.819820     58.349732     58.349732    116.699463
     -4.809810     56.327034     56.327034    112.654068
     -4.799800     52.667982     52.667982    105.335964
     -4.789790     48.365215     48.365215     96.730430
     -4.779780     44.275341     44.275341     88.550682
     -4.769770     40.874545     40.874545     81.749090
     -4.759760     38.211840     38.211840     76.423680
     -4.749750     36.036634     36.036634     72.073268
     -4.739740     34.005270     34.005270     68.010541
     -4.729730     31.858206     31.858206     63.716413
     -4.719720     29.498850     29.498850     58.997700
     -4.709710     26.967920     26.967920     53.935840
     -4.699700     24.361036     24.361036     48.722071
     -4.689690     21.758355     21.758355     43.516709
     -4.679680     19.216203     19.216203     38.432407
     -4.669670     16.824544     16.824544     33.649088
     -4.659660     14.788398     14.788398     29.576797
     -4.649650     13.472342     13.472342     26.944684
     -4.639640     13.363183     13.363183     26.726366
     -4.629630     14.944357     14.944357     29.888714
     -4.619620     18.515723     18.515723     37.031446
     -4.609610     24.020131     24.020131     48.040261
     -4.599600     30.947613     30.947613     61.895226
     -4.589590     38.375090     38.375090     76.750179
     -4.579580     45.160022     45.160022     90.320043
     -4.569570     50.245988     50.245988    100.491976
     -4.559560     52.979907     52.979907    105.959814
     -4.549550     53.317555     53.317555    106.635110
     -4.539540     51.826662     51.826662    103.653324
     -4.529530     49.475851     49.475851     98.951702
     -4.519520     47.286848     47.286848     94.573696
     -4.509510     45.984354     45.984354     91.968708
     -4.499499     45.776747     45.776747     91.553493
     -4.489489     46.343039     46.343039     92.686078
     -4.479479     47.014160     47.014160     94.028320
     -4.469469     47.059075     47.059075     94.118149
     -4.459459     45.952861     45.952861     91.905723
     -4.449449     43.527425     43.527425     87.054851
     -4.439439     39.970763     39.970763     79.941526
     -4.429429     35.712297     35.712297     71.424594
     -4.419419     31.272830     31.272830     62.545660
     -4.409409     27.149989     27.149989     54.299978
     -4.399399     23.764657     23.764657     47.529314
     -4.389389     21.444765     21.444765     42.889530
     -4.379379     20.404590     20.404590     40.809179
     -4.369369     20.700592     20.700592     41.401184
     -4.359359     22.186929     22.186929     44.373859
     -4.349349     24.517784     24.517784     49.035567
     -4.339339     27.227380     27.227380     54.454761
     -4.329329     29.872233     29.872233     59.744465
     -4.319319     32.177134     32.177134     64.354269
     -4.309309     34.116425     34.116425     68.232851
     -4.299299     35.889707     35.889707     71.779414
     -4.289289     37.797490     37.797490     75.594981
     -4.279279     40.062912     40.062912     80.125825
     -4.269269     42.667490     42.667490     85.334980
     -4.259259     45.270080     45.270080     90.540161
     -4.249249     47.258112     47.258112     94.516223
     -4.239239     47.936078     47.936078     95.872156
     -4.229229     46.794546     46.794546     93.589092
     -4.219219     43.749751     43.749751     87.499502
     -4.209209     39.236742     39.236742     78.473485
     -4.199199     34.096927     34.096927     68.193854
     -4.189189     29.300413     29.300413     58.600827
     -4.179179     25.627767     25.627767     51.255535
     -4.169169     23.453133     23.453133     46.906266
     -4.159159     22.712704     22.712704     45.425408
     -4.149149     23.047428     23.047428     46.094856
     -4.139139     24.030962     24.030962     48.061925
     -4.129129     25.367942     25.367942     50.735884
     -4.119119     26.974800     26.974800     53.949601
     -4.109109     28.915426     28.915426     57.830853
     -4.099099     31.232188     31.232188     62.464376
     -4.089089     33.766243     33.766243     67.532485
     -4.079079     36.076364     36.076364     72.152727
     -4.069069     37.525852     37.525852     75.051705
     -4.059059     37.520276     37.520276     75.040553
     -4.049049     35.787456     35.787456     71.574912
     -4.039039     32.553659     32.553659     65.107317
     -4.029029     28.517629     28.517629     57.035259
     -4.019019     24.631730     24.631730     49.263459
     -4.009009     21.799408     21.799408     43.598816
     -3.998999     20.629397     20.629397     41.258795
     -3.988989     21.337604     21.337604     42.675208
     -3.978979     23.798416     23.798416     47.596831
     -3.968969     27.677424     27.677424     55.354848
     -3.958959     32.563624     32.563624     65.127249
     -3.948949     38.054984     38.054984     76.109968
     -3.938939     43.799475     43.799475     87.598951
     -3.928929     49.516597     49.516597     99.033195
     -3.918919     55.011772     55.011772    110.023544
     -3.908909     60.169622     60.169622    120.339243
     -3.898899     64.904356     64.904356    129.808712
     -3.888889     69.069615     69.069615    138.139230
     -3.878879     72.368901     72.368901    144.737801
     -3.868869     74.328599     74.328599    148.657198
     -3.858859     74.377531     74.377531    148.755061
     -3.848849     72.026114     72.026114    144.052229
     -3.838839     67.082302     67.082302    134.164603
     -3.828829     59.811819     59.811819    119.623639
     -3.818819     50.964246     50.964246    101.928493
     -3.808809     41.638755     41.638755     83.277510
     -3.798799     33.028975     33.028975     66.057949
     -3.788789     26.133812     26.133812     52.267625
     -3.778779     21.529560     21.529560     43.059120
     -3.768769     19.269148     19.269148     38.538295
     -3.758759     18.926101     18.926101     37.852202
     -3.748749     19.756658     19.756658     39.513315
     -3.738739     20.927205     20.927205     41.854410
     -3.728729     21.746710     21.746710     43.493420
     -3.718719     21.849122     21.849122     43.698245
     -3.708709     21.283346     21.283346     42.566692
     -3.698699     20.486434     20.486434     40.972868
     -3.688689     20.139929     20.139929     40.279858
     -3.678679     20.939640     20.939640     41.879279
     -3.668669     23.340762     23.340762     46.681524
     -3.658659     27.361168     27.361168     54.722336
     -3.648649     32.520098     32.520098     65.040195
     -3.638639     37.947943     37.947943     75.895887
     -3.628629     42.635036     42.635036     85.270073
     -3.618619     45.725029     45.725029     91.450058
     -3.608609     46.738966     46.738966     93.477932
     -3.598599     45.654439     45.654439     91.308878
     -3.588589     42.836913     42.836913     85.673827
     -3.578579     38.880999     38.880999     77.761999
     -3.568569     34.434936     34.434936     68.869872
     -3.558559     30.057093     30.057093     60.114186
     -3.548549     26.121463     26.121463     52.242926
     -3.538539     22.775882     22.775882     45.551765
     -3.528529     19.958978     19.958978     39.917956
     -3.518519     17.478058     17.478058     34.956115
     -3.508509     15.129177     15.129177     30.258354
     -3.498498     12.815801     12.815801     25.631602
     -3.488488     10.617427     10.617427     21.234855
     -3.478478      8.782296      8.782296     17.564593
     -3.468468      7.652733      7.652733     15.305466
     -3.458458      7.554041      7.554041     15.108083
     -3.448448      8.679622      8.679622     17.359244
     -3.438438     10.997801     10.997801     21.995602
     -3.428428     14.204730     14.204730     28.409460
     -3.418418     17.751493     17.751493     35.502987
     -3.408408     20.964668     20.964668     41.929335
     -3.398398     23.244628     23.244628     46.489256
     -3.388388     24.276980     24.276980     48.553960
     -3.378378     24.164586     24.164586     48.329172
     -3.368368     23.410417     23.410417     46.820834
     -3.358358     22.749389     22.749389     45.498778
     -3.348348     22.898827     22.898827     45.797654
     -3.338338     24.326498     24.326498     48.652996
     -3.328328     27.110195     27.110195     54.220390
     -3.318318     30.912373     30.912373     61.824745
     -3.308308     35.057285     35.057285     70.114569
     -3.298298     38.689519     38.689519     77.379039
     -3.288288     40.990606     40.990606     81.981212
     -3.278278     41.409595     41.409595     82.819191
     -3.268268     39.831385     39.831385     79.662770
     -3.258258     36.601833     36.601833     73.203666
     -3.248248     32.380788     32.380788     64.761576
     -3.238238     27.883685     27.883685     55.767369
     -3.228228     23.637758     23.637758     47.275517
     -3.218218     19.868308     19.868308     39.736616
     -3.208208     16.548686     16.548686     33.097372
     -3.198198     13.553758     13.553758     27.107516
     -3.188188     10.813834     10.813834     21.627668
     -3.178178      8.393279      8.393279     16.786559
     -3.168168      6.481797      6.481797     12.963595
     -3.158158      5.335693      5.335693     10.671386
     -3.148148      5.213186      5.213186     10.426373
     -3.138138      6.321848      6.321848     12.643695
     -3.128128      8.768861      8.768861     17.537722
     -3.118118     12.501415     12.501415     25.002831
     -3.108108     17.246577     17.246577     34.493154
     -3.098098     22.487161     22.487161     44.974322
     -3.088088     27.515757     27.515757     55.031514
     -3.078078     31.580028     31.580028     63.160056
     -3.068068     34.080513     34.080513     68.161026
     -3.058058     34.739850     34.739850     69.479701
     -3.048048     33.662428     33.662428     67.324856
     -3.038038     31.254123     31.254123     62.508246
     -3.028028     28.045855     28.045855     56.091709
     -3.018018     24.515097     24.515097     49.030193
     -3.008008     20.992632     20.992632     41.985265
     -2.997998     17.683358     17.683358     35.366716
     -2.987988     14.760789     14.760789     29.521578
     -2.977978     12.459546     12.459546     24.919092
     -2.967968     11.104070     11.104070     22.208140
     -2.957958     11.055760     11.055760     22.111521
     -2.947948     12.602388     12.602388     25.204776
     -2.937938     15.833983     15.833983     31.667967
     -2.927928     20.550378     20.550378     41.100756
     -2.917918     26.237011     26.237011     52.474022
     -2.907908     32.131047     32.131047     64.262094
     -2.897898     37.375670     37.375670     74.751339
     -2.887888     41.226826     41.226826     82.453651
     -2.877878     43.246081     43.246081     86.492162
     -2.867868     43.405066     43.405066     86.810131
     -2.857858     42.053897     42.053897     84.107794
     -2.847848     39.761454     39.761454     79.522908
     -2.837838     37.094000     37.094000     74.187999
     -2.827828     34.428865     34.428865     68.857731
     -2.817818     31.882706     31.882706     63.765412
     -2.807808     29.375523     29.375523     58.751047
     -2.797798     26.782438     26.782438     53.564876
     -2.787788     24.082833     24.082833     48.165666
     -2.777778     21.424555     21.424555     42.849111
     -2.767768     19.074201     19.074201     38.148402
     -2.757758     17.292195     17.292195     34.584390
     -2.747748     16.213818     16.213818     32.427636
     -2.737738     15.809479     15.809479     31.618959
     -2.727728     15.943917     15.943917     31.887834
     -2.717718     16.487814     16.487814     32.975627
     -2.707708     17.399747     17.399747     34.799493
     -2.697698     18.717210     18.717210     37.434421
     -2.687688     20.461494     20.461494     40.922988
     -2.677678     22.528078     22.528078     45.056156
     -2.667668     24.652775     24.652775     49.305550
     -2.657658     26.496151     26.496151     52.992303
     -2.647648     27.804940     27.804940     55.609881
     -2.637638     28.548971     28.548971     57.097942
     -2.627628     28.941507     28.941507     57.883014
     -2.617618     29.325481     29.325481     58.650962
     -2.607608     29.994398     29.994398     59.988795
     -2.597598     31.052450     31.052450     62.104901
     -2.587588     32.381334     32.381334     64.762668
     -2.577578     33.705472     33.705472     67.410944
     -2.567568     34.693387     34.693387     69.386774
     -2.557558     35.036984     35.036984     70.073967
     -2.547548     34.496844     34.496844     68.993688
     -2.537538     32.941199     32.941199     65.882398
     -2.527528     30.402539     30.402539     60.805078
     -2.517518     27.136550     27.136550     54.273100
     -2.507508     23.634177     23.634177     47.268354
     -2.497497     20.544118     20.544118     41.088236
     -2.487487     18.509028     18.509028     37.018055
     -2.477477     17.971729     17.971729     35.943459
     -2.467467     19.032673     19.032673     38.065346
     -2.457457     21.423044     21.423044     42.846087
     -2.447447     24.609783     24.609783     49.219566
     -2.437437     27.992223     27.992223     55.984447
     -2.427427     31.108910     31.108910     62.217821
     -2.417417     33.765637     33.765637     67.531273
     -2.407407     36.027930     36.027930     72.055860
     -2.397397     38.082410     38.082410     76.164820
     -2.387387     40.035020     40.035020     80.070039
     -2.377377     41.749420     41.749420     83.498839
     -2.367367     42.815865     42.815865     85.631731
     -2.357357     42.681346     42.681346     85.362692
     -2.347347     40.891132     40.891132     81.782264
     -2.337337     37.330654     37.330654     74.661309
     -2.327327     32.350547     32.350547     64.701094
     -2.317317     26.713856     26.713856     53.427713
     -2.307307     21.391632     21.391632     42.783264
     -2.297297     17.300105     17.300105     34.600211
     -2.287287     15.083698     15.083698     30.167396
     -2.277277     15.006886     15.006886     30.013772
     -2.267267     16.959434     16.959434     33.918868
     -2.257257     20.539091     20.539091     41.078182
     -2.247247     25.166075     25.166075     50.332149
     -2.237237     30.194322     30.194322     60.388644
     -2.227227     34.999957     34.999957     69.999913
     -2.217217     39.040012     39.040012     78.080024
     -2.207207     41.884963     41.884963     83.769927
     -2.197197     43.237913     43.237913     86.475827
     -2.187187     42.956617     42.956617     85.913234
     -2.177177     41.085046     41.085046     82.170092
     -2.167167     37.879709     37.879709     75.759418
     -2.157157     33.796945     33.796945     67.593890
     -2.147147     29.411575     29.411575     58.823150
     -2.137137     25.272219     25.272219     50.544439
     -2.127127     21.745678     21.745678     43.491357
     -2.117117     18.926171     18.926171     37.852341
     -2.107107     16.660800     16.660800     33.321600
     -2.097097     14.681022     14.681022     29.362044
     -2.087087     12.771272     12.771272     25.542545
     -2.077077     10.889016     10.889016     21.778032
     -2.067067      9.183110      9.183110     18.366219
     -2.057057      7.913697      7.913697     15.827394
     -2.047047      7.321057      7.321057     14.642114
     -2.037037      7.503616      7.503616     15.007231
     -2.027027      8.351519      8.351519     16.703038
     -2.017017      9.557296      9.557296     19.114593
     -2.007007     10.699746     10.699746     21.399492
     -1.996997     11.373944     11.373944     22.747888
     -1.986987     11.322427     11.322427     22.644854
     -1.976977     10.518978     10.518978     21.037957
     -1.966967      9.174154      9.174154     18.348307
     -1.956957      7.665185      7.665185     15.330371
     -1.946947      6.423569      6.423569     12.847138
     -1.936937      5.823644      5.823644     11.647288
     -1.926927      6.102639      6.102639     12.205277
     -1.916917      7.321061      7.321061     14.642121
     -1.906907      9.358529      9.358529     18.717057
     -1.896897     11.938925     11.938925     23.877849
     -1.886887     14.682099     14.682099     29.364198
     -1.876877     17.177756     17.177756     34.355512
     -1.866867     19.069667     19.069667     38.139333
     -1.856857     20.131544     20.131544     40.263089
     -1.846847     20.315115     20.315115     40.630231
     -1.836837     19.755462     19.755462     39.510924
     -1.826827     18.726313     18.726313     37.452627
     -1.816817     17.550031     17.550031     35.100061
     -1.806807     16.485501     16.485501     32.971002
     -1.796797     15.635560     15.635560     31.271120
     -1.786787     14.918330     14.918330     29.836660
     -1.776777     14.122506     14.122506     28.245012
     -1.766767     13.023403     13.023403     26.046806
     -1.756757     11.501585     11.501585     23.003171
     -1.746747      9.604795      9.604795     19.209589
     -1.736737      7.528733      7.528733     15.057466
     -1.726727      5.538896      5.538896     11.077791
     -1.716717      3.882893      3.882893      7.765786
     -1.706707      2.736150      2.736150      5.472301
     -1.696697      2.193554      2.193554      4.387108
     -1.686687      2.288818      2.288818      4.577636
     -1.676677      3.010871      3.010871      6.021743
     -1.666667      4.296838      4.296838      8.593677
     -1.656657      6.005157      6.005157     12.010315
     -1.646647      7.894621      7.894621     15.789242
     -1.636637      9.641217      9.641217     19.282434
     -1.626627     10.908543     10.908543     21.817086
