# EIG2DOS: Utility for SIESTA to obtain the electronic density of states
#  E. Artacho, Apr 1999, A. Garcia, Apr 2012
#  Nick R. Papior, Feb 2017
# ------------------------------------------
# Eigenvalues calculated from a non-polarized calculation
# Eigenvalues read from siesta.EIG
# Kpoint weights read from siesta.KP
# Using smearing parameter:   0.0500
# Using 1000 points in the energy range
# Selected bands: 1 to: 2981
# Emin, Emax in file for selected band(s):    -27.0469877    218.3046770
# Nbands, Nspin, Nk   =   2981     1     1
# E_F                 =    -4.3096 eV --> (shifted to ZERO)
# Broadening          =     0.0500 eV
#
#        E            N(up)  (=)   N(down)         Ntot
     -5.000000     46.025256     46.025256     92.050512
     -4.989990     49.043266     49.043266     98.086533
     -4.979980     50.472753     50.472753    100.945506
     -4.969970     50.275405     50.275405    100.550810
     -4.959960     48.630166     48.630166     97.260332
     -4.949950     45.863575     45.863575     91.727151
     -4.939940     42.377549     42.377549     84.755099
     -4.929930     38.609477     38.609477     77.218955
     -4.919920     35.032636     35.032636     70.065272
     -4.909910     32.174248     32.174248     64.348496
     -4.899900     30.608042     30.608042     61.216084
     -4.889890     30.877484     30.877484     61.754968
     -4.879880     33.333205     33.333205     66.666410
     -4.869870     37.923377     37.923377     75.846753
     -4.859860     44.036143     44.036143     88.072286
     -4.849850     50.513925     50.513925    101.027851
     -4.839840     55.903769     55.903769    111.807537
     -4.829830     58.887239     58.887239    117.774479
     -4.819820     58.716280     58.716280    117.432560
     -4.809810     55.451981     55.451981    110.903962
     -4.799800     49.894332     49.894332     99.788664
     -4.789790     43.250666     43.250666     86.501332
     -4.779780     36.715794     36.715794     73.431589
     -4.769770     31.151827     31.151827     62.303654
     -4.759760     26.966458     26.966458     53.932917
     -4.749750     24.169745     24.169745     48.339491
     -4.739740     22.518573     22.518573     45.037146
     -4.729730     21.659723     21.659723     43.319446
     -4.719720     21.226919     21.226919     42.453838
     -4.709710     20.890739     20.890739     41.781479
     -4.699700     20.381420     20.381420     40.762840
     -4.689690     19.506624     19.506624     39.013247
     -4.679680     18.178762     18.178762     36.357523
     -4.669670     16.453570     16.453570     32.907140
     -4.659660     14.566221     14.566221     29.132443
     -4.649650     12.940503     12.940503     25.881006
     -4.639640     12.147747     12.147747     24.295495
     -4.629630     12.805020     12.805020     25.610039
     -4.619620     15.420314     15.420314     30.840628
     -4.609610     20.212309     20.212309     40.424618
     -4.599600     26.953589     26.953589     53.907178
     -4.589590     34.904001     34.904001     69.808003
     -4.579580     42.897631     42.897631     85.795263
     -4.569570     49.604409     49.604409     99.208818
     -4.559560     53.909433     53.909433    107.818866
     -4.549550     55.276878     55.276878    110.553756
     -4.539540     53.942548     53.942548    107.885097
     -4.529530     50.837137     50.837137    101.674273
     -4.519520     47.258678     47.258678     94.517355
     -4.509510     44.425821     44.425821     88.851643
     -4.499499     43.092370     43.092370     86.184739
     -4.489489     43.365620     43.365620     86.731241
     -4.479479     44.772696     44.772696     89.545392
     -4.469469     46.514187     46.514187     93.028373
     -4.459459     47.781598     47.781598     95.563195
     -4.449449     48.013782     48.013782     96.027564
     -4.439439     47.015857     47.015857     94.031713
     -4.429429     44.932314     44.932314     89.864629
     -4.419419     42.123300     42.123300     84.246599
     -4.409409     39.018382     39.018382     78.036764
     -4.399399     36.009654     36.009654     72.019308
     -4.389389     33.406434     33.406434     66.812869
     -4.379379     31.431934     31.431934     62.863868
     -4.369369     30.224026     30.224026     60.448053
     -4.359359     29.817888     29.817888     59.635775
     -4.349349     30.122422     30.122422     60.244844
     -4.339339     30.924812     30.924812     61.849623
     -4.329329     31.947533     31.947533     63.895066
     -4.319319     32.946544     32.946544     65.893088
     -4.309309     33.806636     33.806636     67.613272
     -4.299299     34.585381     34.585381     69.170763
     -4.289289     35.481937     35.481937     70.963875
     -4.279279     36.740905     36.740905     73.481811
     -4.269269     38.524508     38.524508     77.049016
     -4.259259     40.794941     40.794941     81.589881
     -4.249249     43.250617     43.250617     86.501234
     -4.239239     45.355953     45.355953     90.711907
     -4.229229     46.482145     46.482145     92.964290
     -4.219219     46.128058     46.128058     92.256116
     -4.209209     44.134279     44.134279     88.268557
     -4.199199     40.781616     40.781616     81.563233
     -4.189189     36.709138     36.709138     73.418276
     -4.179179     32.680906     32.680906     65.361812
     -4.169169     29.315897     29.315897     58.631795
     -4.159159     26.913726     26.913726     53.827452
     -4.149149     25.448972     25.448972     50.897944
     -4.139139     24.711980     24.711980     49.423960
     -4.129129     24.502644     24.502644     49.005287
     -4.119119     24.768920     24.768920     49.537839
     -4.109109     25.619226     25.619226     51.238451
     -4.099099     27.203436     27.203436     54.406872
     -4.089089     29.524776     29.524776     59.049552
     -4.079079     32.289238     32.289238     64.578477
     -4.069069     34.895072     34.895072     69.790144
     -4.059059     36.601260     36.601260     73.202519
     -4.049049     36.813997     36.813997     73.627994
     -4.039039     35.351389     35.351389     70.702778
     -4.029029     32.545516     32.545516     65.091032
     -4.019019     29.127233     29.127233     58.254465
     -4.009009     25.959990     25.959990     51.919981
     -3.998999     23.765063     23.765063     47.530127
     -3.988989     22.964545     22.964545     45.929090
     -3.978979     23.679471     23.679471     47.358942
     -3.968969     25.826272     25.826272     51.652544
     -3.958959     29.218617     29.218617     58.437234
     -3.948949     33.616715     33.616715     67.233430
     -3.938939     38.732035     38.732035     77.464070
     -3.928929     44.235337     44.235337     88.470673
     -3.918919     49.801877     49.801877     99.603754
     -3.908909     55.178639     55.178639    110.357278
     -3.898899     60.220069     60.220069    120.440138
     -3.888889     64.845666     64.845666    129.691332
     -3.878879     68.923205     68.923205    137.846409
     -3.868869     72.141551     72.141551    144.283102
     -3.858859     73.964990     73.964990    147.929979
     -3.848849     73.732983     73.732983    147.465966
     -3.838839     70.894275     70.894275    141.788551
     -3.828829     65.281887     65.281887    130.563774
     -3.818819     57.295571     57.295571    114.591142
     -3.808809     47.890001     47.890001     95.780003
     -3.798799     38.356336     38.356336     76.712672
     -3.788789     29.980937     29.980937     59.961873
     -3.778779     23.713994     23.713994     47.427988
     -3.768769     19.962193     19.962193     39.924385
     -3.758759     18.555498     18.555498     37.110997
     -3.748749     18.870591     18.870591     37.741182
     -3.738739     20.052635     20.052635     40.105270
     -3.728729     21.267253     21.267253     42.534507
     -3.718719     21.922903     21.922903     43.845806
     -3.708709     21.817100     21.817100     43.634199
     -3.698699     21.174184     21.174184     42.348368
     -3.688689     20.560940     20.560940     41.121880
     -3.678679     20.693344     20.693344     41.386688
     -3.668669     22.181399     22.181399     44.362799
     -3.658659     25.289271     25.289271     50.578542
     -3.648649     29.797848     29.797848     59.595697
     -3.638639     35.031234     35.031234     70.062468
     -3.628629     40.047560     40.047560     80.095120
     -3.618619     43.922403     43.922403     87.844805
     -3.608609     46.010168     46.010168     92.020336
     -3.598599     46.084428     46.084428     92.168856
     -3.588589     44.324389     44.324389     88.648778
     -3.578579     41.188050     41.188050     82.376099
     -3.568569     37.247313     37.247313     74.494625
     -3.558559     33.045056     33.045056     66.090113
     -3.548549     28.996935     28.996935     57.993871
     -3.538539     25.337697     25.337697     50.675394
     -3.528529     22.112843     22.112843     44.225685
     -3.518519     19.221933     19.221933     38.443866
     -3.508509     16.508430     16.508430     33.016861
     -3.498498     13.865632     13.865632     27.731264
     -3.488488     11.312579     11.312579     22.625157
     -3.478478      9.005833      9.005833     18.011666
     -3.468468      7.185914      7.185914     14.371827
     -3.458458      6.087034      6.087034     12.174067
     -3.448448      5.847795      5.847795     11.695590
     -3.438438      6.451064      6.451064     12.902129
     -3.428428      7.707978      7.707978     15.415956
     -3.418418      9.292867      9.292867     18.585734
     -3.408408     10.828231     10.828231     21.656462
     -3.398398     12.003285     12.003285     24.006570
     -3.388388     12.688474     12.688474     25.376948
     -3.378378     12.997516     12.997516     25.995032
     -3.368368     13.263342     13.263342     26.526683
     -3.358358     13.932073     13.932073     27.864146
     -3.348348     15.417328     15.417328     30.834657
     -3.338338     17.969723     17.969723     35.939446
     -3.328328     21.596958     21.596958     43.193916
     -3.318318     26.037864     26.037864     52.075728
     -3.308308     30.777883     30.777883     61.555767
     -3.298298     35.104338     35.104338     70.208676
     -3.288288     38.217598     38.217598     76.435196
     -3.278278     39.406903     39.406903     78.813807
     -3.268268     38.257288     38.257288     76.514575
     -3.258258     34.806903     34.806903     69.613805
     -3.248248     29.568896     29.568896     59.137791
     -3.238238     23.388066     23.388066     46.776131
     -3.228228     17.187821     17.187821     34.375643
     -3.218218     11.718631     11.718631     23.437262
     -3.208208      7.408542      7.408542     14.817084
     -3.198198      4.353008      4.353008      8.706015
     -3.188188      2.412171      2.412171      4.824343
     -3.178178      1.349356      1.349356      2.698712
     -3.168168      0.952319      0.952319      1.904639
     -3.158158      1.108462      1.108462      2.216924
     -3.148148      1.831100      1.831100      3.662199
     -3.138138      3.244176      3.244176      6.488352
     -3.128128      5.531628      5.531628     11.063255
     -3.118118      8.856977      8.856977     17.713954
     -3.108108     13.266862     13.266862     26.533724
     -3.098098     18.606999     18.606999     37.213998
     -3.088088     24.488563     24.488563     48.977125
     -3.078078     30.333552     30.333552     60.667103
     -3.068068     35.496010     35.496010     70.992020
     -3.058058     39.416137     39.416137     78.832274
     -3.048048     41.742491     41.742491     83.484983
     -3.038038     42.373372     42.373372     84.746745
     -3.028028     41.416385     41.416385     82.832769
     -3.018018     39.113120     39.113120     78.226240
     -3.008008     35.787960     35.787960     71.575920
     -2.997998     31.846590     31.846590     63.693179
     -2.987988     27.797966     27.797966     55.595931
     -2.977978     24.245417     24.245417     48.490834
     -2.967968     21.810322     21.810322     43.620644
     -2.957958     20.999981     20.999981     41.999961
     -2.947948     22.072075     22.072075     44.144150
     -2.937938     24.953447     24.953447     49.906894
     -2.927928     29.242570     29.242570     58.485139
     -2.917918     34.287838     34.287838     68.575676
     -2.907908     39.312299     39.312299     78.624597
     -2.897898     43.555476     43.555476     87.110952
     -2.887888     46.411525     46.411525     92.823050
     -2.877878     47.544425     47.544425     95.088851
     -2.867868     46.953327     46.953327     93.906654
     -2.857858     44.958216     44.958216     89.916432
     -2.847848     42.093260     42.093260     84.186520
     -2.837838     38.932492     38.932492     77.864985
     -2.827828     35.910314     35.910314     71.820627
     -2.817818     33.211274     33.211274     66.422548
     -2.807808     30.776371     30.776371     61.552743
     -2.797798     28.417454     28.417454     56.834909
     -2.787788     25.976868     25.976868     51.953736
     -2.777778     23.447304     23.447304     46.894608
     -2.767768     20.990728     20.990728     41.981456
     -2.757758     18.853230     18.853230     37.706460
     -2.747748     17.232388     17.232388     34.464775
     -2.737738     16.180452     16.180452     32.360905
     -2.727728     15.603295     15.603295     31.206590
     -2.717718     15.354093     15.354093     30.708186
     -2.707708     15.358920     15.358920     30.717840
     -2.697698     15.688289     15.688289     31.376579
     -2.687688     16.521088     16.521088     33.042176
     -2.677678     18.016794     18.016794     36.033587
     -2.667668     20.174549     20.174549     40.349097
     -2.657658     22.771885     22.771885     45.543770
     -2.647648     25.429610     25.429610     50.859220
     -2.637638     27.770127     27.770127     55.540254
     -2.627628     29.575904     29.575904     59.151807
     -2.617618     30.854851     30.854851     61.709701
     -2.607608     31.781340     31.781340     63.562680
     -2.597598     32.561876     32.561876     65.123752
     -2.587588     33.314937     33.314937     66.629874
     -2.577578     34.028293     34.028293     68.056585
     -2.567568     34.590868     34.590868     69.181736
     -2.557558     34.847752     34.847752     69.695503
     -2.547548     34.633746     34.633746     69.267493
     -2.537538     33.787704     33.787704     67.575409
     -2.527528     32.184989     32.184989     64.369979
     -2.517518     29.811393     29.811393     59.622787
     -2.507508     26.850932     26.850932     53.701865
     -2.497497     23.721346     23.721346     47.442692
     -2.487487     21.004148     21.004148     42.008295
     -2.477477     19.275631     19.275631     38.551262
     -2.467467     18.909031     18.909031     37.818063
     -2.457457     19.942690     19.942690     39.885380
     -2.447447     22.080399     22.080399     44.160798
     -2.437437     24.826342     24.826342     49.652683
     -2.427427     27.692131     27.692131     55.384261
     -2.417417     30.378476     30.378476     60.756953
     -2.407407     32.845148     32.845148     65.690296
     -2.397397     35.236088     35.236088     70.472175
     -2.387387     37.697910     37.697910     75.395821
     -2.377377     40.185470     40.185470     80.370939
     -2.367367     42.359525     42.359525     84.719049
     -2.357357     43.641204     43.641204     87.282409
     -2.347347     43.413346     43.413346     86.826693
     -2.337337     41.285101     41.285101     82.570202
     -2.327327     37.300589     37.300589     74.601177
     -2.317317     31.995095     31.995095     63.990190
     -2.307307     26.272858     26.272858     52.545715
     -2.297297     21.160778     21.160778     42.321556
     -2.287287     17.539189     17.539189     35.078378
     -2.277277     15.944205     15.944205     31.888410
     -2.267267     16.490442     16.490442     32.980884
     -2.257257     18.910679     18.910679     37.821358
     -2.247247     22.675201     22.675201     45.350401
     -2.237237     27.141992     27.141992     54.283984
     -2.227227     31.691527     31.691527     63.383054
     -2.217217     35.811240     35.811240     71.622479
     -2.207207     39.116398     39.116398     78.232796
     -2.197197     41.324326     41.324326     82.648652
     -2.187187     42.224114     42.224114     84.448228
     -2.177177     41.684404     41.684404     83.368809
     -2.167167     39.709552     39.709552     79.419105
     -2.157157     36.507016     36.507016     73.014033
     -2.147147     32.501649     32.501649     65.003298
     -2.137137     28.252594     28.252594     56.505187
     -2.127127     24.288810     24.288810     48.577620
     -2.117117     20.939178     20.939178     41.878356
     -2.107107     18.247430     18.247430     36.494859
     -2.097097     16.017042     16.017042     32.034083
     -2.087087     13.956429     13.956429     27.912857
     -2.077077     11.841012     11.841012     23.682023
     -2.067067      9.609513      9.609513     19.219026
     -2.057057      7.360428      7.360428     14.720856
     -2.047047      5.273768      5.273768     10.547537
     -2.037037      3.515263      3.515263      7.030525
     -2.027027      2.172914      2.172914      4.345829
     -2.017017      1.244340      1.244340      2.488680
     -2.007007      0.663032      0.663032      1.326063
     -1.996997      0.338888      0.338888      0.677776
     -1.986987      0.193090      0.193090      0.386179
     -1.976977      0.179595      0.179595      0.359190
     -1.966967      0.295033      0.295033      0.590065
     -1.956957      0.581159      0.581159      1.162317
     -1.946947      1.120806      1.120806      2.241612
     -1.936937      2.023808      2.023808      4.047616
     -1.926927      3.398488      3.398488      6.796977
     -1.916917      5.309550      5.309550     10.619100
     -1.906907      7.732954      7.732954     15.465909
     -1.896897     10.526597     10.526597     21.053193
     -1.886887     13.434903     13.434903     26.869807
     -1.876877     16.133566     16.133566     32.267133
     -1.866867     18.303284     18.303284     36.606568
     -1.856857     19.709002     19.709002     39.418005
     -1.846847     20.259793     20.259793     40.519586
     -1.836837     20.031452     20.031452     40.062905
     -1.826827     19.242914     19.242914     38.485828
     -1.816817     18.187297     18.187297     36.374593
     -1.806807     17.132749     17.132749     34.265498
     -1.796797     16.226523     16.226523     32.453045
     -1.786787     15.445708     15.445708     30.891416
     -1.776777     14.624705     14.624705     29.249410
     -1.766767     13.552270     13.552270     27.104539
     -1.756757     12.091265     12.091265     24.182529
     -1.746747     10.260765     10.260765     20.521530
     -1.736737      8.244097      8.244097     16.488195
     -1.726727      6.330723      6.330723     12.661446
     -1.716717      4.832976      4.832976      9.665952
     -1.706707      4.019784      4.019784      8.039569
     -1.696697      4.083493      4.083493      8.166987
     -1.686687      5.126239      5.126239     10.252479
     -1.676677      7.141600      7.141600     14.283200
     -1.666667      9.981643      9.981643     19.963285
     -1.656657     13.326390     13.326390     26.652781
     -1.646647     16.690753     16.690753     33.381506
     -1.636637     19.497246     19.497246     38.994493
     -1.626627     21.211609     21.211609     42.423218
