# EIG2DOS: Utility for SIESTA to obtain the electronic density of states
#  E. Artacho, Apr 1999, A. Garcia, Apr 2012
#  Nick R. Papior, Feb 2017
# ------------------------------------------
# Eigenvalues calculated from a non-polarized calculation
# Eigenvalues read from siesta.EIG
# Kpoint weights read from siesta.KP
# Using smearing parameter:   0.0500
# Using 1000 points in the energy range
# Selected bands: 1 to: 2981
# Emin, Emax in file for selected band(s):    -27.1371946    218.3362950
# Nbands, Nspin, Nk   =   2981     1     1
# E_F                 =    -4.2713 eV --> (shifted to ZERO)
# Broadening          =     0.0500 eV
#
#        E            N(up)  (=)   N(down)         Ntot
     -5.000000     36.235210     36.235210     72.470420
     -4.989990     38.998715     38.998715     77.997431
     -4.979980     41.428080     41.428080     82.856159
     -4.969970     43.030286     43.030286     86.060572
     -4.959960     43.440930     43.440930     86.881861
     -4.949950     42.526227     42.526227     85.052455
     -4.939940     40.421154     40.421154     80.842308
     -4.929930     37.508173     37.508173     75.016347
     -4.919920     34.360077     34.360077     68.720154
     -4.909910     31.667953     31.667953     63.335907
     -4.899900     30.154381     30.154381     60.308762
     -4.889890     30.452124     30.452124     60.904248
     -4.879880     32.935229     32.935229     65.870458
     -4.869870     37.531865     37.531865     75.063730
     -4.859860     43.602690     43.602690     87.205381
     -4.849850     49.986970     49.986970     99.973939
     -4.839840     55.265308     55.265308    110.530615
     -4.829830     58.176829     58.176829    116.353658
     -4.819820     58.025907     58.025907    116.051814
     -4.809810     54.894027     54.894027    109.788054
     -4.799800     49.560940     49.560940     99.121879
     -4.789790     43.185459     43.185459     86.370919
     -4.779780     36.907965     36.907965     73.815930
     -4.769770     31.548055     31.548055     63.096111
     -4.759760     27.489006     27.489006     54.978012
     -4.749750     24.732062     24.732062     49.464124
     -4.739740     23.037037     23.037037     46.074074
     -4.729730     22.064047     22.064047     44.128095
     -4.719720     21.470090     21.470090     42.940179
     -4.709710     20.955893     20.955893     41.911786
     -4.699700     20.282690     20.282690     40.565379
     -4.689690     19.284449     19.284449     38.568899
     -4.679680     17.893903     17.893903     35.787806
     -4.669670     16.184028     16.184028     32.368055
     -4.659660     14.406931     14.406931     28.813862
     -4.649650     13.000194     13.000194     26.000388
     -4.639640     12.534950     12.534950     25.069899
     -4.629630     13.598522     13.598522     27.197044
     -4.619620     16.628492     16.628492     33.256984
     -4.609610     21.737565     21.737565     43.475130
     -4.599600     28.586352     28.586352     57.172704
     -4.589590     36.367407     36.367407     72.734813
     -4.579580     43.945374     43.945374     87.890748
     -4.569570     50.146262     50.146262    100.292524
     -4.559560     54.116544     54.116544    108.233088
     -4.549550     55.616915     55.616915    111.233831
     -4.539540     55.116188     55.116188    110.232375
     -4.529530     53.621748     53.621748    107.243496
     -4.519520     52.296809     52.296809    104.593618
     -4.509510     52.015452     52.015452    104.030905
     -4.499499     53.040665     53.040665    106.081330
     -4.489489     54.957167     54.957167    109.914334
     -4.479479     56.874415     56.874415    113.748831
     -4.469469     57.794682     57.794682    115.589364
     -4.459459     56.978223     56.978223    113.956445
     -4.449449     54.161158     54.161158    108.322316
     -4.439439     49.571176     49.571176     99.142353
     -4.429429     43.785939     43.785939     87.571878
     -4.419419     37.534780     37.534780     75.069561
     -4.409409     31.534857     31.534857     63.069715
     -4.399399     26.398546     26.398546     52.797092
     -4.389389     22.592659     22.592659     45.185318
     -4.379379     20.408371     20.408371     40.816742
     -4.369369     19.920837     19.920837     39.841674
     -4.359359     20.956297     20.956297     41.912595
     -4.349349     23.107207     23.107207     46.214414
     -4.339339     25.822339     25.822339     51.644678
     -4.329329     28.557260     28.557260     57.114521
     -4.319319     30.930771     30.930771     61.861542
     -4.309309     32.822660     32.822660     65.645319
     -4.299299     34.373128     34.373128     68.746255
     -4.289289     35.886341     35.886341     71.772682
     -4.279279     37.674932     37.674932     75.349864
     -4.269269     39.897114     39.897114     79.794228
     -4.259259     42.438484     42.438484     84.876969
     -4.249249     44.884486     44.884486     89.768972
     -4.239239     46.612969     46.612969     93.225938
     -4.229229     46.998339     46.998339     93.996677
     -4.219219     45.662391     45.662391     91.324781
     -4.209209     42.662496     42.662496     85.324991
     -4.199199     38.515723     38.515723     77.031446
     -4.189189     34.030593     34.030593     68.061185
     -4.179179     30.019656     30.019656     60.039311
     -4.169169     27.031241     27.031241     54.062483
     -4.159159     25.224114     25.224114     50.448228
     -4.149149     24.426321     24.426321     48.852642
     -4.139139     24.323602     24.323602     48.647204
     -4.129129     24.667250     24.667250     49.334499
     -4.119119     25.395944     25.395944     50.791889
     -4.109109     26.616573     26.616573     53.233147
     -4.099099     28.458519     28.458519     56.917037
     -4.089089     30.879256     30.879256     61.758511
     -4.079079     33.532603     33.532603     67.065207
     -4.069069     35.792758     35.792758     71.585515
     -4.059059     36.952933     36.952933     73.905867
     -4.049049     36.517837     36.517837     73.035675
     -4.039039     34.443555     34.443555     68.887110
     -4.029029     31.195646     31.195646     62.391293
     -4.019019     27.593204     27.593204     55.186409
     -4.009009     24.523406     24.523406     49.046812
     -3.998999     22.672400     22.672400     45.344801
     -3.988989     22.388828     22.388828     44.777657
     -3.978979     23.704011     23.704011     47.408022
     -3.968969     26.445085     26.445085     52.890171
     -3.958959     30.349165     30.349165     60.698331
     -3.948949     35.124041     35.124041     70.248082
     -3.938939     40.462922     40.462922     80.925844
     -3.928929     46.055483     46.055483     92.110966
     -3.918919     51.622683     51.622683    103.245366
     -3.908909     56.959586     56.959586    113.919172
     -3.898899     61.941576     61.941576    123.883152
     -3.888889     66.463164     66.463164    132.926327
     -3.878879     70.327387     70.327387    140.654774
     -3.868869     73.152164     73.152164    146.304328
     -3.858859     74.371394     74.371394    148.742788
     -3.848849     73.369715     73.369715    146.739430
     -3.838839     69.718185     69.718185    139.436371
     -3.828829     63.413036     63.413036    126.826071
     -3.818819     55.000593     55.000593    110.001186
     -3.808809     45.514259     45.514259     91.028517
     -3.798799     36.233554     36.233554     72.467109
     -3.788789     28.354600     28.354600     56.709199
     -3.778779     22.693851     22.693851     45.387701
     -3.768769     19.521471     19.521471     39.042942
     -3.758759     18.560406     18.560406     37.120812
     -3.748749     19.128113     19.128113     38.256226
     -3.738739     20.363534     20.363534     40.727068
     -3.728729     21.474063     21.474063     42.948127
     -3.718719     21.944814     21.944814     43.889627
     -3.708709     21.665147     21.665147     43.330294
     -3.698699     20.942682     20.942682     41.885364
     -3.688689     20.395734     20.395734     40.791469
     -3.678679     20.743850     20.743850     41.487700
     -3.668669     22.549588     22.549588     45.099177
     -3.658659     25.991905     25.991905     51.983809
     -3.648649     30.755590     30.755590     61.511180
     -3.638639     36.089144     36.089144     72.178287
     -3.628629     41.018994     41.018994     82.037987
     -3.618619     44.638804     44.638804     89.277607
     -3.608609     46.358451     46.358451     92.716902
     -3.598599     46.022129     46.022129     92.044258
     -3.588589     43.874564     43.874564     87.749129
     -3.578579     40.423059     40.423059     80.846118
     -3.568569     36.269757     36.269757     72.539514
     -3.558559     31.968910     31.968910     63.937820
     -3.548549     27.928740     27.928740     55.857481
     -3.538539     24.359303     24.359303     48.718606
     -3.528529     21.270447     21.270447     42.540894
     -3.518519     18.526146     18.526146     37.052292
     -3.508509     15.945410     15.945410     31.890819
     -3.498498     13.413513     13.413513     26.827026
     -3.488488     10.955143     10.955143     21.910286
     -3.478478      8.738052      8.738052     17.476104
     -3.468468      7.011127      7.011127     14.022254
     -3.458458      6.009347      6.009347     12.018694
     -3.448448      5.864136      5.864136     11.728272
     -3.438438      6.546189      6.546189     13.092379
     -3.428428      7.854320      7.854320     15.708640
     -3.418418      9.455980      9.455980     18.911960
     -3.408408     10.977124     10.977124     21.954249
     -3.398398     12.122763     12.122763     24.245526
     -3.388388     12.788708     12.788708     25.577416
     -3.378378     13.116269     13.116269     26.232538
     -3.368368     13.459087     13.459087     26.918174
     -3.358358     14.270117     14.270117     28.540233
     -3.348348     15.953144     15.953144     31.906288
     -3.338338     18.732706     18.732706     37.465413
     -3.328328     22.575480     22.575480     45.150959
     -3.318318     27.166483     27.166483     54.332966
     -3.308308     31.931449     31.931449     63.862899
     -3.298298     36.108035     36.108035     72.216070
     -3.288288     38.880265     38.880265     77.760530
     -3.278278     39.574001     39.574001     79.148002
     -3.268268     37.865126     37.865126     75.730252
     -3.258258     33.912845     33.912845     67.825689
     -3.248248     28.341453     28.341453     56.682906
     -3.238238     22.062418     22.062418     44.124836
     -3.228228     16.012215     16.012215     32.024430
     -3.218218     10.921633     10.921633     21.843267
     -3.208208      7.203215      7.203215     14.406431
     -3.198198      4.970439      4.970439      9.940878
     -3.188188      4.136863      4.136863      8.273726
     -3.178178      4.522883      4.522883      9.045766
     -3.168168      5.922942      5.922942     11.845885
     -3.158158      8.130037      8.130037     16.260073
     -3.148148     10.944859     10.944859     21.889718
     -3.138138     14.196597     14.196597     28.393194
     -3.128128     17.776118     17.776118     35.552236
     -3.118118     21.653373     21.653373     43.306747
     -3.108108     25.845449     25.845449     51.690899
     -3.098098     30.329580     30.329580     60.659160
     -3.088088     34.939519     34.939519     69.879037
     -3.078078     39.310005     39.310005     78.620009
     -3.068068     42.917886     42.917886     85.835771
     -3.058058     45.215724     45.215724     90.431448
     -3.048048     45.798889     45.798889     91.597778
     -3.038038     44.527673     44.527673     89.055346
     -3.028028     41.554233     41.554233     83.108465
     -3.018018     37.259055     37.259055     74.518111
     -3.008008     32.145687     32.145687     64.291375
     -2.997998     26.749752     26.749752     53.499504
     -2.987988     21.591277     21.591277     43.182554
     -2.977978     17.162627     17.162627     34.325255
     -2.967968     13.923025     13.923025     27.846050
     -2.957958     12.272851     12.272851     24.545702
     -2.947948     12.497850     12.497850     24.995700
     -2.937938     14.692312     14.692312     29.384624
     -2.927928     18.685225     18.685225     37.370450
     -2.917918     24.002987     24.002987     48.005974
     -2.907908     29.902713     29.902713     59.805426
     -2.897898     35.494157     35.494157     70.988314
     -2.887888     39.933898     39.933898     79.867796
     -2.877878     42.635187     42.635187     85.270375
     -2.867868     43.414179     43.414179     86.828358
     -2.857858     42.507662     42.507662     85.015325
     -2.847848     40.448352     40.448352     80.896703
     -2.837838     37.847901     37.847901     75.695801
     -2.827828     35.181231     35.181231     70.362462
     -2.817818     32.664088     32.664088     65.328176
     -2.807808     30.268349     30.268349     60.536698
     -2.797798     27.850623     27.850623     55.701246
     -2.787788     25.315116     25.315116     50.630233
     -2.777778     22.720219     22.720219     45.440438
     -2.767768     20.275482     20.275482     40.550964
     -2.757758     18.240765     18.240765     36.481530
     -2.747748     16.795708     16.795708     33.591417
     -2.737738     15.962686     15.962686     31.925373
     -2.727728     15.630472     15.630472     31.260944
     -2.717718     15.659924     15.659924     31.319848
     -2.707708     15.997959     15.997959     31.995919
     -2.697698     16.718426     16.718426     33.436852
     -2.687688     17.955954     17.955954     35.911908
     -2.677678     19.772561     19.772561     39.545122
     -2.667668     22.047769     22.047769     44.095539
     -2.657658     24.474334     24.474334     48.948669
     -2.647648     26.675225     26.675225     53.350451
     -2.637638     28.375995     28.375995     56.751990
     -2.627628     29.526544     29.526544     59.053087
     -2.617618     30.297618     30.297618     60.595237
     -2.607608     30.959356     30.959356     61.918712
     -2.597598     31.723003     31.723003     63.446006
     -2.587588     32.639847     32.639847     65.279694
     -2.577578     33.598749     33.598749     67.197499
     -2.567568     34.392132     34.392132     68.784264
     -2.557558     34.787806     34.787806     69.575612
     -2.547548     34.569976     34.569976     69.139952
     -2.537538     33.563596     33.563596     67.127191
     -2.527528     31.679178     31.679178     63.358357
     -2.517518     28.988111     28.988111     57.976223
     -2.507508     25.788802     25.788802     51.577604
     -2.497497     22.600930     22.600930     45.201859
     -2.487487     20.054043     20.054043     40.108087
     -2.477477     18.698956     18.698956     37.397912
     -2.467467     18.821935     18.821935     37.643870
     -2.457457     20.349098     20.349098     40.698196
     -2.447447     22.888734     22.888734     45.777469
     -2.437437     25.895260     25.895260     51.790519
     -2.427427     28.881679     28.881679     57.763358
     -2.417417     31.583801     31.583801     63.167601
     -2.407407     34.000551     34.000551     68.001102
     -2.397397     36.292827     36.292827     72.585653
     -2.387387     38.592380     38.592380     77.184760
     -2.377377     40.819103     40.819103     81.638207
     -2.367367     42.605649     42.605649     85.211298
     -2.357357     43.380270     43.380270     86.760540
     -2.347347     42.582892     42.582892     85.165784
     -2.337337     39.921573     39.921573     79.843145
     -2.327327     35.551669     35.551669     71.103338
     -2.317317     30.093673     30.093673     60.187346
     -2.307307     24.481407     24.481407     48.962814
     -2.297297     19.708293     19.708293     39.416586
     -2.287287     16.574672     16.574672     33.149344
     -2.277277     15.520833     15.520833     31.041665
     -2.267267     16.579522     16.579522     33.159043
     -2.257257     19.432575     19.432575     38.865149
     -2.247247     23.530171     23.530171     47.060342
     -2.237237     28.227645     28.227645     56.455290
     -2.227227     32.902732     32.902732     65.805464
     -2.217217     37.029089     37.029089     74.058178
     -2.207207     40.200308     40.200308     80.400616
     -2.197197     42.121136     42.121136     84.242273
     -2.187187     42.598746     42.598746     85.197492
     -2.177177     41.562387     41.562387     83.124775
     -2.167167     39.110843     39.110843     78.221686
     -2.157157     35.550453     35.550453     71.100906
     -2.147147     31.371845     31.371845     62.743690
     -2.137137     27.140073     27.140073     54.280147
     -2.127127     23.329079     23.329079     46.658159
     -2.117117     20.178058     20.178058     40.356116
     -2.107107     17.646707     17.646707     35.293415
     -2.097097     15.493723     15.493723     30.987445
     -2.087087     13.432804     13.432804     26.865607
     -2.077077     11.280467     11.280467     22.560934
     -2.067067      9.024458      9.024458     18.048917
     -2.057057      6.795449      6.795449     13.590899
     -2.047047      4.778589      4.778589      9.557179
     -2.037037      3.123013      3.123013      6.246027
     -2.027027      1.891808      1.891808      3.783615
     -2.017017      1.061741      1.061741      2.123483
     -2.007007      0.555638      0.555638      1.111276
     -1.996997      0.282655      0.282655      0.565310
     -1.986987      0.169561      0.169561      0.339121
     -1.976977      0.178437      0.178437      0.356875
     -1.966967      0.314158      0.314158      0.628315
     -1.956957      0.625738      0.625738      1.251475
     -1.946947      1.201605      1.201605      2.403211
     -1.936937      2.154511      2.154511      4.309022
     -1.926927      3.591615      3.591615      7.183230
     -1.916917      5.571302      5.571302     11.142604
     -1.906907      8.058313      8.058313     16.116625
     -1.896897     10.896556     10.896556     21.793112
     -1.886887     13.817347     13.817347     27.634695
     -1.876877     16.488196     16.488196     32.976393
     -1.866867     18.590032     18.590032     37.180064
     -1.856857     19.899053     19.899053     39.798105
     -1.846847     20.348541     20.348541     40.697081
     -1.836837     20.052832     20.052832     40.105663
     -1.826827     19.284250     19.284250     38.568500
     -1.816817     18.403318     18.403318     36.806636
     -1.806807     17.756208     17.756208     35.512417
     -1.796797     17.569814     17.569814     35.139628
     -1.786787     17.883052     17.883052     35.766104
     -1.776777     18.541830     18.541830     37.083659
     -1.766767     19.256904     19.256904     38.513807
     -1.756757     19.696638     19.696638     39.393275
     -1.746747     19.578542     19.578542     39.157084
     -1.736737     18.735837     18.735837     37.471675
     -1.726727     17.152991     17.152991     34.305983
     -1.716717     14.972415     14.972415     29.944830
     -1.706707     12.472845     12.472845     24.945691
     -1.696697     10.018855     10.018855     20.037710
     -1.686687      7.987164      7.987164     15.974328
     -1.676677      6.684690      6.684690     13.369381
     -1.666667      6.277264      6.277264     12.554528
     -1.656657      6.744987      6.744987     13.489973
     -1.646647      7.875577      7.875577     15.751153
     -1.636637      9.303696      9.303696     18.607391
     -1.626627     10.597854     10.597854     21.195709
