# EIG2DOS: Utility for SIESTA to obtain the electronic density of states
#  E. Artacho, Apr 1999, A. Garcia, Apr 2012
#  Nick R. Papior, Feb 2017
# ------------------------------------------
# Eigenvalues calculated from a non-polarized calculation
# Eigenvalues read from siesta.EIG
# Kpoint weights read from siesta.KP
# Using smearing parameter:   0.0500
# Using 1000 points in the energy range
# Selected bands: 1 to: 2981
# Emin, Emax in file for selected band(s):    -27.2007780    218.3528890
# Nbands, Nspin, Nk   =   2981     1     1
# E_F                 =    -4.2509 eV --> (shifted to ZERO)
# Broadening          =     0.0500 eV
#
#        E            N(up)  (=)   N(down)         Ntot
     -5.000000     34.437790     34.437790     68.875579
     -4.989990     38.242198     38.242198     76.484397
     -4.979980     41.380755     41.380755     82.761510
     -4.969970     43.385120     43.385120     86.770239
     -4.959960     43.937030     43.937030     87.874060
     -4.949950     42.967057     42.967057     85.934114
     -4.939940     40.688249     40.688249     81.376497
     -4.929930     37.564128     37.564128     75.128257
     -4.919920     34.237041     34.237041     68.474083
     -4.909910     31.443419     31.443419     62.886839
     -4.899900     29.919916     29.919916     59.839832
     -4.889890     30.281839     30.281839     60.563679
     -4.879880     32.861118     32.861118     65.722236
     -4.869870     37.533466     37.533466     75.066933
     -4.859860     43.616611     43.616611     87.233223
     -4.849850     49.935127     49.935127     99.870254
     -4.839840     55.091158     55.091158    110.182315
     -4.829830     57.872703     57.872703    115.745407
     -4.819820     57.637772     57.637772    115.275543
     -4.809810     54.501963     54.501963    109.003925
     -4.799800     49.246703     49.246703     98.493406
     -4.789790     43.003868     43.003868     86.007737
     -4.779780     36.873713     36.873713     73.747426
     -4.769770     31.639037     31.639037     63.278073
     -4.759760     27.659239     27.659239     55.318478
     -4.749750     24.926196     24.926196     49.852391
     -4.739740     23.202223     23.202223     46.404446
     -4.729730     22.158765     22.158765     44.317531
     -4.719720     21.470356     21.470356     42.940713
     -4.709710     20.858340     20.858340     41.716681
     -4.699700     20.104023     20.104023     40.208047
     -4.689690     19.058753     19.058753     38.117505
     -4.679680     17.671224     17.671224     35.342449
     -4.669670     16.033323     16.033323     32.066647
     -4.659660     14.423416     14.423416     28.846833
     -4.649650     13.313568     13.313568     26.627136
     -4.639640     13.313249     13.313249     26.626497
     -4.629630     15.043397     15.043397     30.086793
     -4.619620     18.960366     18.960366     37.920733
     -4.609610     25.171252     25.171252     50.342504
     -4.599600     33.297647     33.297647     66.595293
     -4.589590     42.449643     42.449643     84.899287
     -4.579580     51.355398     51.355398    102.710796
     -4.569570     58.645646     58.645646    117.291292
     -4.559560     63.225726     63.225726    126.451453
     -4.549550     64.609908     64.609908    129.219816
     -4.539540     63.081408     63.081408    126.162816
     -4.529530     59.595809     59.595809    119.191618
     -4.519520     55.449198     55.449198    110.898397
     -4.509510     51.836590     51.836590    103.673181
     -4.499499     49.476124     49.476124     98.952247
     -4.489489     48.441683     48.441683     96.883365
     -4.479479     48.248064     48.248064     96.496128
     -4.469469     48.121601     48.121601     96.243203
     -4.459459     47.322052     47.322052     94.644105
     -4.449449     45.385918     45.385918     90.771836
     -4.439439     42.223145     42.223145     84.446289
     -4.429429     38.076920     38.076920     76.153839
     -4.419419     33.408044     33.408044     66.816087
     -4.409409     28.770961     28.770961     57.541921
     -4.399399     24.717144     24.717144     49.434287
     -4.389389     21.722644     21.722644     43.445288
     -4.379379     20.119881     20.119881     40.239762
     -4.369369     20.028653     20.028653     40.057306
     -4.359359     21.310749     21.310749     42.621497
     -4.349349     23.586745     23.586745     47.173491
     -4.339339     26.334747     26.334747     52.669493
     -4.329329     29.048139     29.048139     58.096279
     -4.319319     31.392158     31.392158     62.784317
     -4.309309     33.293311     33.293311     66.586623
     -4.299299     34.924811     34.924811     69.849622
     -4.289289     36.595445     36.595445     73.190889
     -4.279279     38.584325     38.584325     77.168650
     -4.269269     40.978892     40.978892     81.957784
     -4.259259     43.572860     43.572860     87.145720
     -4.249249     45.870046     45.870046     91.740093
     -4.239239     47.214660     47.214660     94.429320
     -4.229229     47.022117     47.022117     94.044235
     -4.219219     45.027926     45.027926     90.055852
     -4.209209     41.440247     41.440247     82.880494
     -4.199199     36.909006     36.909006     73.818011
     -4.189189     32.310247     32.310247     64.620494
     -4.179179     28.442059     28.442059     56.884118
     -4.169169     25.775404     25.775404     51.550808
     -4.159159     24.369265     24.369265     48.738531
     -4.149149     23.968843     23.968843     47.937686
     -4.139139     24.215124     24.215124     48.430248
     -4.129129     24.851064     24.851064     49.702128
     -4.119119     25.825133     25.825133     51.650266
     -4.109109     27.248996     27.248996     54.497992
     -4.099099     29.236038     29.236038     58.472076
     -4.089089     31.707229     31.707229     63.414458
     -4.079079     34.276900     34.276900     68.553800
     -4.069069     36.303279     36.303279     72.606558
     -4.059059     37.107500     37.107500     74.214999
     -4.049049     36.266732     36.266732     72.533465
     -4.039039     33.832167     33.832167     67.664335
     -4.029029     30.353416     30.353416     60.706832
     -4.019019     26.694792     26.694792     53.389584
     -4.009009     23.741021     23.741021     47.482043
     -3.998999     22.138857     22.138857     44.277715
     -3.988989     22.180804     22.180804     44.361609
     -3.978979     23.842885     23.842885     47.685770
     -3.968969     26.906788     26.906788     53.813576
     -3.958959     31.076520     31.076520     62.153041
     -3.948949     36.040432     36.040432     72.080863
     -3.938939     41.488604     41.488604     82.977208
     -3.928929     47.124968     47.124968     94.249936
     -3.918919     52.696369     52.696369    105.392738
     -3.908909     58.021121     58.021121    116.042241
     -3.898899     62.978029     62.978029    125.956057
     -3.888889     67.436004     67.436004    134.872008
     -3.878879     71.151320     71.151320    142.302640
     -3.868869     73.698600     73.698600    147.397200
     -3.858859     74.501832     74.501832    149.003664
     -3.848849     72.987493     72.987493    145.974986
     -3.838839     68.815191     68.815191    137.630383
     -3.828829     62.088710     62.088710    124.177420
     -3.818819     53.443538     53.443538    106.887076
     -3.808809     43.954090     43.954090     87.908179
     -3.798799     34.882497     34.882497     69.764994
     -3.788789     27.359485     27.359485     54.718971
     -3.778779     22.111402     22.111402     44.222804
     -3.768769     19.319193     19.319193     38.638386
     -3.758759     18.637657     18.637657     37.275314
     -3.748749     19.348935     19.348935     38.697870
     -3.738739     20.593081     20.593081     41.186162
     -3.728729     21.611610     21.611610     43.223221
     -3.718719     21.947160     21.947160     43.894319
     -3.708709     21.555210     21.555210     43.110420
     -3.698699     20.800238     20.800238     41.600475
     -3.688689     20.331158     20.331158     40.662316
     -3.678679     20.860888     20.860888     41.721776
     -3.668669     22.907966     22.907966     45.815932
     -3.658659     26.582565     26.582565     53.165129
     -3.648649     31.498389     31.498389     62.996777
     -3.638639     36.854747     36.854747     73.709494
     -3.628629     41.666573     41.666573     83.333147
     -3.618619     45.054358     45.054358     90.108716
     -3.608609     46.479527     46.479527     92.959055
     -3.598599     45.842914     45.842914     91.685827
     -3.588589     43.435225     43.435225     86.870451
     -3.578579     39.792409     39.792409     79.584817
     -3.568569     35.528640     35.528640     71.057280
     -3.558559     31.196679     31.196679     62.393358
     -3.548549     27.192083     27.192083     54.384166
     -3.538539     23.703494     23.703494     47.406987
     -3.528529     20.715374     20.715374     41.430747
     -3.518519     18.069488     18.069488     36.138976
     -3.508509     15.572260     15.572260     31.144520
     -3.498498     13.108082     13.108082     26.216164
     -3.488488     10.709156     10.709156     21.418311
     -3.478478      8.552756      8.552756     17.105511
     -3.468468      6.893471      6.893471     13.786941
     -3.458458      5.965288      5.965288     11.930576
     -3.448448      5.892306      5.892306     11.784613
     -3.438438      6.634200      6.634200     13.268399
     -3.428428      7.979025      7.979025     15.958049
     -3.418418      9.588283      9.588283     19.176566
     -3.408408     11.090731     11.090731     22.181463
     -3.398398     12.204518     12.204518     24.409035
     -3.388388     12.846691     12.846691     25.693382
     -3.378378     13.182051     13.182051     26.364102
     -3.368368     13.582687     13.582687     27.165373
     -3.358358     14.509018     14.509018     29.018037
     -3.348348     16.358156     16.358156     32.716311
     -3.338338     19.333066     19.333066     38.666132
     -3.328328     23.365165     23.365165     46.730330
     -3.318318     28.095486     28.095486     56.190972
     -3.308308     32.909725     32.909725     65.819450
     -3.298298     37.031843     37.031843     74.063685
     -3.288288     39.685268     39.685268     79.370536
     -3.278278     40.305372     40.305372     80.610743
     -3.268268     38.737962     38.737962     77.475924
     -3.258258     35.327282     35.327282     70.654565
     -3.248248     30.824565     30.824565     61.649129
     -3.238238     26.133567     26.133567     52.267134
     -3.228228     22.001329     22.001329     44.002658
     -3.218218     18.797219     18.797219     37.594438
     -3.208208     16.476060     16.476060     32.952120
     -3.198198     14.722965     14.722965     29.445929
     -3.188188     13.190269     13.190269     26.380538
     -3.178178     11.708004     11.708004     23.416009
     -3.168168     10.383681     10.383681     20.767362
     -3.158158      9.572253      9.572253     19.144505
     -3.148148      9.750992      9.750992     19.501983
     -3.138138     11.354019     11.354019     22.708038
     -3.128128     14.613666     14.613666     29.227333
     -3.118118     19.442275     19.442275     38.884550
     -3.108108     25.382605     25.382605     50.765211
     -3.098098     31.652486     31.652486     63.304973
     -3.088088     37.293636     37.293636     74.587272
     -3.078078     41.398780     41.398780     82.797561
     -3.068068     43.349134     43.349134     86.698269
     -3.058058     42.973586     42.973586     85.947172
     -3.048048     40.562510     40.562510     81.125020
     -3.038038     36.729718     36.729718     73.459435
     -3.028028     32.186161     32.186161     64.372322
     -3.018018     27.529067     27.529067     55.058135
     -3.008008     23.135552     23.135552     46.271104
     -2.997998     19.188473     19.188473     38.376945
     -2.987988     15.791629     15.791629     31.583259
     -2.977978     13.092826     13.092826     26.185653
     -2.967968     11.343941     11.343941     22.687881
     -2.957958     10.870988     10.870988     21.741977
     -2.947948     11.972440     11.972440     23.944881
     -2.937938     14.789117     14.789117     29.578235
     -2.927928     19.193330     19.193330     38.386661
     -2.917918     24.738641     24.738641     49.477283
     -2.907908     30.699453     30.699453     61.398907
     -2.897898     36.207346     36.207346     72.414692
     -2.887888     40.456441     40.456441     80.912883
     -2.877878     42.913914     42.913914     85.827827
     -2.867868     43.455481     43.455481     86.910962
     -2.857858     42.366190     42.366190     84.732380
     -2.847848     40.201022     40.201022     80.402044
     -2.837838     37.563082     37.563082     75.126163
     -2.827828     34.895929     34.895929     69.791858
     -2.817818     32.378672     32.378672     64.757345
     -2.807808     29.960058     29.960058     59.920117
     -2.797798     27.497806     27.497806     54.995613
     -2.787788     24.918817     24.918817     49.837635
     -2.777778     22.311584     22.311584     44.623167
     -2.767768     19.905939     19.905939     39.811877
     -2.757758     17.962343     17.962343     35.924686
     -2.747748     16.644829     16.644829     33.289659
     -2.737738     15.958092     15.958092     31.916183
     -2.727728     15.785640     15.785640     31.571280
     -2.717718     15.998622     15.998622     31.997243
     -2.707708     16.556680     16.556680     33.113360
     -2.697698     17.526234     17.526234     35.052468
     -2.687688     18.998181     18.998181     37.996362
     -2.677678     20.960100     20.960100     41.920201
     -2.667668     23.216896     23.216896     46.433793
     -2.657658     25.427882     25.427882     50.855763
     -2.647648     27.251194     27.251194     54.502389
     -2.637638     28.510164     28.510164     57.020327
     -2.627628     29.275848     29.275848     58.551695
     -2.617618     29.812522     29.812522     59.625045
     -2.607608     30.421994     30.421994     60.843988
     -2.597598     31.283915     31.283915     62.567829
     -2.587588     32.380101     32.380101     64.760201
     -2.577578     33.523735     33.523735     67.047470
     -2.567568     34.445854     34.445854     68.891708
     -2.557558     34.873824     34.873824     69.747648
     -2.547548     34.574182     34.574182     69.148365
     -2.537538     33.381874     33.381874     66.763749
     -2.527528     31.250451     31.250451     62.500902
     -2.517518     28.323281     28.323281     56.646562
     -2.507508     24.979951     24.979951     49.959902
     -2.497497     21.800751     21.800751     43.601502
     -2.487487     19.430258     19.430258     38.860516
     -2.477477     18.381984     18.381984     36.763969
     -2.467467     18.867471     18.867471     37.734942
     -2.457457     20.729297     20.729297     41.458594
     -2.447447     23.512179     23.512179     47.024357
     -2.437437     26.643966     26.643966     53.287932
     -2.427427     29.648084     29.648084     59.296168
     -2.417417     32.293124     32.293124     64.586249
     -2.407407     34.612326     34.612326     69.224651
     -2.397397     36.785568     36.785568     73.571135
     -2.387387     38.942688     38.942688     77.885376
     -2.377377     40.987907     40.987907     81.975813
     -2.367367     42.539924     42.539924     85.079849
     -2.357357     43.030744     43.030744     86.061487
     -2.347347     41.930226     41.930226     83.860451
     -2.337337     38.998563     38.998563     77.997125
     -2.327327     34.449564     34.449564     68.899129
     -2.317317     28.947422     28.947422     57.894844
     -2.307307     23.438596     23.438596     46.877193
     -2.297297     18.894297     18.894297     37.788593
     -2.287287     16.067536     16.067536     32.135073
     -2.277277     15.343572     15.343572     30.687144
     -2.267267     16.708777     16.708777     33.417553
     -2.257257     19.815971     19.815971     39.631941
     -2.247247     24.102887     24.102887     48.205775
     -2.237237     28.921469     28.921469     57.842937
     -2.227227     33.646349     33.646349     67.292697
     -2.217217     37.744001     37.744001     75.488003
     -2.207207     40.799973     40.799973     81.599947
     -2.197197     42.519643     42.519643     85.039286
     -2.187187     42.729681     42.729681     85.459363
     -2.177177     41.401174     41.401174     82.802348
     -2.167167     38.689070     38.689070     77.378139
     -2.157157     34.952131     34.952131     69.904262
     -2.147147     30.709304     30.709304     61.418608
     -2.137137     26.517754     26.517754     53.035508
     -2.127127     22.810792     22.810792     45.621583
     -2.117117     19.772583     19.772583     39.545167
     -2.107107     17.317539     17.317539     34.635078
     -2.097097     15.186358     15.186358     30.372716
     -2.087087     13.104643     13.104643     26.209286
     -2.077077     10.918876     10.918876     21.837752
     -2.067067      8.646872      8.646872     17.293745
     -2.057057      6.435630      6.435630     12.871260
     -2.047047      4.469054      4.469054      8.938109
     -2.037037      2.882778      2.882778      5.765556
     -2.027027      1.723205      1.723205      3.446411
     -2.017017      0.954561      0.954561      1.909122
     -2.007007      0.494199      0.494199      0.988397
     -1.996997      0.252031      0.252031      0.504062
     -1.986987      0.159318      0.159318      0.318635
     -1.976977      0.184126      0.184126      0.368252
     -1.966967      0.337574      0.337574      0.675147
     -1.956957      0.674740      0.674740      1.349480
     -1.946947      1.289822      1.289822      2.579644
     -1.936937      2.301230      2.301230      4.602460
     -1.926927      3.823019      3.823019      7.646039
     -1.916917      5.925622      5.925622     11.851245
     -1.906907      8.598239      8.598239     17.196479
     -1.896897     11.730418     11.730418     23.460836
     -1.886887     15.124772     15.124772     30.249544
     -1.876877     18.537267     18.537267     37.074534
     -1.866867     21.726034     21.726034     43.452068
     -1.856857     24.486652     24.486652     48.973303
     -1.846847     26.664318     26.664318     53.328637
     -1.836837     28.150647     28.150647     56.301295
     -1.826827     28.879671     28.879671     57.759341
     -1.816817     28.829424     28.829424     57.658848
     -1.806807     28.022962     28.022962     56.045924
     -1.796797     26.520543     26.520543     53.041085
     -1.786787     24.405294     24.405294     48.810587
     -1.776777     21.775160     21.775160     43.550319
     -1.766767     18.750562     18.750562     37.501123
     -1.756757     15.491154     15.491154     30.982308
     -1.746747     12.202101     12.202101     24.404202
     -1.736737      9.114595      9.114595     18.229191
     -1.726727      6.444655      6.444655     12.889311
     -1.716717      4.352029      4.352029      8.704058
     -1.706707      2.922067      2.922067      5.844135
     -1.696697      2.177176      2.177176      4.354352
     -1.686687      2.103764      2.103764      4.207528
     -1.676677      2.670353      2.670353      5.340705
     -1.666667      3.819331      3.819331      7.638661
     -1.656657      5.434554      5.434554     10.869107
     -1.646647      7.308139      7.308139     14.616277
     -1.636637      9.139224      9.139224     18.278447
     -1.626627     10.586660     10.586660     21.173320
