# EIG2DOS: Utility for SIESTA to obtain the electronic density of states
#  E. Artacho, Apr 1999, A. Garcia, Apr 2012
#  Nick R. Papior, Feb 2017
# ------------------------------------------
# Eigenvalues calculated from a non-polarized calculation
# Eigenvalues read from siesta.EIG
# Kpoint weights read from siesta.KP
# Using smearing parameter:   0.0500
# Using 1000 points in the energy range
# Selected bands: 1 to: 2981
# Emin, Emax in file for selected band(s):    -27.0467406    218.3071090
# Nbands, Nspin, Nk   =   2981     1     1
# E_F                 =    -4.3062 eV --> (shifted to ZERO)
# Broadening          =     0.0500 eV
#
#        E            N(up)  (=)   N(down)         Ntot
     -5.000000     45.560821     45.560821     91.121642
     -4.989990     48.228206     48.228206     96.456412
     -4.979980     49.487615     49.487615     98.975229
     -4.969970     49.328531     49.328531     98.657062
     -4.959960     47.887006     47.887006     95.774012
     -4.949950     45.401496     45.401496     90.802992
     -4.939940     42.181466     42.181466     84.362933
     -4.929930     38.600788     38.600788     77.201575
     -4.919920     35.110221     35.110221     70.220442
     -4.909910     32.247548     32.247548     64.495095
     -4.899900     30.613337     30.613337     61.226675
     -4.889890     30.780107     30.780107     61.560214
     -4.879880     33.123811     33.123811     66.247622
     -4.869870     37.614838     37.614838     75.229675
     -4.859860     43.662310     43.662310     87.324620
     -4.849850     50.126860     50.126860    100.253721
     -4.839840     55.565308     55.565308    111.130616
     -4.829830     58.654298     58.654298    117.308597
     -4.819820     58.624596     58.624596    117.249192
     -4.809810     55.505857     55.505857    111.011715
     -4.799800     50.067774     50.067774    100.135549
     -4.789790     43.499250     43.499250     86.998500
     -4.779780     36.992972     36.992972     73.985943
     -4.769770     31.421972     31.421972     62.843943
     -4.759760     27.210206     27.210206     54.420412
     -4.749750     24.382066     24.382066     48.764132
     -4.739740     22.703059     22.703059     45.406117
     -4.729730     21.822626     21.822626     43.645252
     -4.719720     21.372820     21.372820     42.745639
     -4.709710     21.020276     21.020276     42.040551
     -4.699700     20.490981     20.490981     40.981962
     -4.689690     19.589766     19.589766     39.179533
     -4.679680     18.228724     18.228724     36.457449
     -4.669670     16.465716     16.465716     32.931432
     -4.659660     14.539187     14.539187     29.078373
     -4.649650     12.875644     12.875644     25.751288
     -4.639640     12.047742     12.047742     24.095485
     -4.629630     12.673231     12.673231     25.346461
     -4.619620     15.262058     15.262058     30.524116
     -4.609610     20.037626     20.037626     40.075252
     -4.599600     26.779518     26.779518     53.559036
     -4.589590     34.753961     34.753961     69.507922
     -4.579580     42.796899     42.796899     85.593799
     -4.569570     49.573176     49.573176     99.146351
     -4.559560     53.956810     53.956810    107.913620
     -4.549550     55.399096     55.399096    110.798192
     -4.539540     54.126170     54.126170    108.252340
     -4.529530     51.065021     51.065021    102.130042
     -4.519520     47.514782     47.514782     95.029565
     -4.509510     44.696009     44.696009     89.392017
     -4.499499     43.361540     43.361540     86.723080
     -4.489489     43.614607     43.614607     87.229214
     -4.479479     44.979154     44.979154     89.958308
     -4.469469     46.659366     46.659366     93.318732
     -4.459459     47.860495     47.860495     95.720989
     -4.449449     48.042472     48.042472     96.084943
     -4.439439     47.029558     47.029558     94.059116
     -4.429429     44.972049     44.972049     89.944099
     -4.419419     42.215968     42.215968     84.431936
     -4.409409     39.160497     39.160497     78.320995
     -4.399399     36.164689     36.164689     72.329377
     -4.389389     33.518867     33.518867     67.037735
     -4.379379     31.451500     31.451500     62.903000
     -4.369369     30.127564     30.127564     60.255127
     -4.359359     29.617749     29.617749     59.235498
     -4.349349     29.858460     29.858460     59.716921
     -4.339339     30.645946     30.645946     61.291892
     -4.329329     31.693304     31.693304     63.386607
     -4.319319     32.737161     32.737161     65.474323
     -4.309309     33.644241     33.644241     67.288482
     -4.299299     34.463404     34.463404     68.926809
     -4.289289     35.396132     35.396132     70.792265
     -4.279279     36.695624     36.695624     73.391247
     -4.269269     38.530611     38.530611     77.061223
     -4.259259     40.860375     40.860375     81.720749
     -4.249249     43.369080     43.369080     86.738161
     -4.239239     45.500849     45.500849     91.001698
     -4.229229     46.610560     46.610560     93.221119
     -4.219219     46.193927     46.193927     92.387854
     -4.209209     44.104571     44.104571     88.209142
     -4.199199     40.647759     40.647759     81.295518
     -4.189189     36.488869     36.488869     72.977738
     -4.179179     32.411052     32.411052     64.822103
     -4.169169     29.040673     29.040673     58.081345
     -4.159159     26.673894     26.673894     53.347787
     -4.149149     25.275032     25.275032     50.550063
     -4.139139     24.621517     24.621517     49.243034
     -4.129129     24.500150     24.500150     49.000301
     -4.119119     24.846470     24.846470     49.692939
     -4.109109     25.757668     25.757668     51.515336
     -4.099099     27.374881     27.374881     54.749763
     -4.089089     29.697092     29.697092     59.394183
     -4.079079     32.432071     32.432071     64.864141
     -4.069069     34.985573     34.985573     69.971146
     -4.059059     36.627417     36.627417     73.254833
     -4.049049     36.774665     36.774665     73.549330
     -4.039039     35.254026     35.254026     70.508052
     -4.029029     32.403768     32.403768     64.807536
     -4.019019     28.959916     28.959916     57.919832
     -4.009009     25.791081     25.791081     51.582162
     -3.998999     23.622670     23.622670     47.245340
     -3.988989     22.877024     22.877024     45.754048
     -3.978979     23.668912     23.668912     47.337825
     -3.968969     25.901957     25.901957     51.803914
     -3.958959     29.373754     29.373754     58.747509
     -3.948949     33.830233     33.830233     67.660466
     -3.938939     38.974580     38.974580     77.949161
     -3.928929     44.476792     44.476792     88.953584
     -3.918919     50.017585     50.017585    100.035170
     -3.908909     55.352657     55.352657    110.705313
     -3.898899     60.345174     60.345174    120.690348
     -3.888889     64.920935     64.920935    129.841869
     -3.878879     68.950733     68.950733    137.901465
     -3.868869     72.124182     72.124182    144.248364
     -3.858859     73.906344     73.906344    147.812687
     -3.848849     73.639519     73.639519    147.279039
     -3.838839     70.777452     70.777452    141.554903
     -3.828829     65.158037     65.158037    130.316073
     -3.818819     57.182577     57.182577    114.365155
     -3.808809     47.802180     47.802180     95.604361
     -3.798799     38.300356     38.300356     76.600712
     -3.788789     29.954974     29.954974     59.909949
     -3.778779     23.710246     23.710246     47.420492
     -3.768769     19.970977     19.970977     39.941955
     -3.758759     18.568717     18.568717     37.137434
     -3.748749     18.883235     18.883235     37.766471
     -3.738739     20.062396     20.062396     40.124792
     -3.728729     21.273160     21.273160     42.546319
     -3.718719     21.924021     21.924021     43.848042
     -3.708709     21.811929     21.811929     43.623858
     -3.698699     21.160916     21.160916     42.321833
     -3.688689     20.538395     20.538395     41.076789
     -3.678679     20.662190     20.662190     41.324381
     -3.668669     22.145100     22.145100     44.290200
     -3.658659     25.254094     25.254094     50.508189
     -3.648649     29.771513     29.771513     59.543026
     -3.638639     35.020352     35.020352     70.040704
     -3.628629     40.054858     40.054858     80.109715
     -3.618619     43.945164     43.945164     87.890329
     -3.608609     46.040985     46.040985     92.081969
     -3.598599     46.114155     46.114155     92.228309
     -3.588589     44.345905     44.345905     88.691811
     -3.578579     41.198881     41.198881     82.397762
     -3.568569     37.249838     37.249838     74.499676
     -3.558559     33.044456     33.044456     66.088911
     -3.548549     28.998256     28.998256     57.996512
     -3.538539     25.343666     25.343666     50.687332
     -3.528529     22.123302     22.123302     44.246605
     -3.518519     19.234701     19.234701     38.469401
     -3.508509     16.520691     16.520691     33.041383
     -3.498498     13.874998     13.874998     27.749997
     -3.488488     11.317439     11.317439     22.634877
     -3.478478      9.005154      9.005154     18.010307
     -3.468468      7.178938      7.178938     14.357876
     -3.458458      6.073261      6.073261     12.146522
     -3.448448      5.827386      5.827386     11.654772
     -3.438438      6.425488      6.425488     12.850976
     -3.428428      7.680492      7.680492     15.360984
     -3.418418      9.268368      9.268368     18.536736
     -3.408408     10.812258     10.812258     21.624516
     -3.398398     12.000360     12.000360     24.000720
     -3.388388     12.700336     12.700336     25.400672
     -3.378378     13.021905     13.021905     26.043810
     -3.368368     13.293764     13.293764     26.587529
     -3.358358     13.958695     13.958695     27.917389
     -3.348348     15.428913     15.428913     30.857826
     -3.338338     17.956455     17.956455     35.912909
     -3.328328     21.553736     21.553736     43.107471
     -3.318318     25.967161     25.967161     51.934322
     -3.308308     30.690809     30.690809     61.381619
     -3.298298     35.018713     35.018713     70.037426
     -3.288288     38.153022     38.153022     76.306044
     -3.278278     39.378444     39.378444     78.756887
     -3.268268     38.270511     38.270511     76.541022
     -3.258258     34.856541     34.856541     69.713083
     -3.248248     29.641630     29.641630     59.283261
     -3.238238     23.467832     23.467832     46.935665
     -3.228228     17.261042     17.261042     34.522085
     -3.218218     11.777307     11.777307     23.554614
     -3.208208      7.450654      7.450654     14.901307
     -3.198198      4.381068      4.381068      8.762135
     -3.188188      2.431333      2.431333      4.862666
     -3.178178      1.366167      1.366167      2.732333
     -3.168168      0.974466      0.974466      1.948932
     -3.158158      1.145096      1.145096      2.290193
     -3.148148      1.892842      1.892842      3.785684
     -3.138138      3.341724      3.341724      6.683449
     -3.128128      5.672235      5.672235     11.344471
     -3.118118      9.038973      9.038973     18.077947
     -3.108108     13.473859     13.473859     26.947719
     -3.098098     18.804814     18.804814     37.609628
     -3.088088     24.628247     24.628247     49.256494
     -3.078078     30.362375     30.362375     60.724750
     -3.068068     35.374712     35.374712     70.749424
     -3.058058     39.136643     39.136643     78.273287
     -3.048048     41.337960     41.337960     82.675920
     -3.038038     41.914053     41.914053     83.828107
     -3.028028     40.990593     40.990593     81.981185
     -3.018018     38.800032     38.800032     77.600065
     -3.008008     35.633695     35.633695     71.267391
     -2.997998     31.853850     31.853850     63.707700
     -2.987988     27.932741     27.932741     55.865482
     -2.977978     24.455829     24.455829     48.911659
     -2.967968     22.047594     22.047594     44.095187
     -2.957958     21.232246     21.232246     42.464493
     -2.947948     22.286989     22.286989     44.573977
     -2.937938     25.151599     25.151599     50.303198
     -2.927928     29.427379     29.427379     58.854757
     -2.917918     34.457728     34.457728     68.915455
     -2.907908     39.458524     39.458524     78.917048
     -2.897898     43.665619     43.665619     87.331238
     -2.887888     46.475993     46.475993     92.951986
     -2.877878     47.562211     47.562211     95.124421
     -2.867868     46.934008     46.934008     93.868016
     -2.857858     44.919217     44.919217     89.838435
     -2.847848     42.053649     42.053649     84.107298
     -2.837838     38.906074     38.906074     77.812148
     -2.827828     35.900919     35.900919     71.801839
     -2.817818     33.212069     33.212069     66.424138
     -2.807808     30.773299     30.773299     61.546598
     -2.797798     28.395291     28.395291     56.790581
     -2.787788     25.925392     25.925392     51.850784
     -2.777778     23.365157     23.365157     46.730314
     -2.767768     20.885656     20.885656     41.771312
     -2.757758     18.739041     18.739041     37.478081
     -2.747748     17.124342     17.124342     34.248684
     -2.737738     16.091202     16.091202     32.182403
     -2.727728     15.540777     15.540777     31.081553
     -2.717718     15.321534     15.321534     30.643068
     -2.707708     15.356037     15.356037     30.712073
     -2.697698     15.712459     15.712459     31.424919
     -2.687688     16.567767     16.567767     33.135533
     -2.677678     18.079272     18.079272     36.158544
     -2.667668     20.243814     20.243814     40.487629
     -2.657658     22.837384     22.837384     45.674769
     -2.647648     25.481120     25.481120     50.962241
     -2.637638     27.800122     27.800122     55.600243
     -2.627628     29.581340     29.581340     59.162679
     -2.617618     30.837573     30.837573     61.675145
     -2.607608     31.747085     31.747085     63.494169
     -2.597598     32.518532     32.518532     65.037065
     -2.587588     33.270786     33.270786     66.541573
     -2.577578     33.990506     33.990506     67.981012
     -2.567568     34.564170     34.564170     69.128340
     -2.557558     34.833250     34.833250     69.666500
     -2.547548     34.628350     34.628350     69.256699
     -2.537538     33.784705     33.784705     67.569410
     -2.527528     32.175947     32.175947     64.351894
     -2.517518     29.788711     29.788711     59.577421
     -2.507508     26.810108     26.810108     53.620215
     -2.497497     23.662183     23.662183     47.324366
     -2.487487     20.930905     20.930905     41.861810
     -2.477477     19.196595     19.196595     38.393190
     -2.467467     18.835894     18.835894     37.671788
     -2.457457     19.889622     19.889622     39.779244
     -2.447447     22.062423     22.062423     44.124846
     -2.437437     24.856811     24.856811     49.713622
     -2.427427     27.779720     27.779720     55.559440
     -2.417417     30.524475     30.524475     61.048950
     -2.407407     33.041806     33.041806     66.083611
     -2.397397     35.466382     35.466382     70.932764
     -2.387387     37.936860     37.936860     75.873721
     -2.377377     40.403146     40.403146     80.806293
     -2.367367     42.525885     42.525885     85.051770
     -2.357357     43.732345     43.732345     87.464691
     -2.347347     43.417772     43.417772     86.835545
     -2.337337     41.207772     41.207772     82.415545
     -2.327327     37.162740     37.162740     74.325480
     -2.317317     31.829314     31.829314     63.658627
     -2.307307     26.114924     26.114924     52.229847
     -2.297297     21.041095     21.041095     42.082190
     -2.287287     17.476565     17.476565     34.953130
     -2.277277     15.943506     15.943506     31.887012
     -2.267267     16.544094     16.544094     33.088189
     -2.257257     19.002862     19.002862     38.005725
     -2.247247     22.786999     22.786999     45.573998
     -2.237237     27.255759     27.255759     54.511517
     -2.227227     31.793225     31.793225     63.586449
     -2.217217     35.890536     35.890536     71.781072
     -2.207207     39.165475     39.165475     78.330950
     -2.197197     41.336971     41.336971     82.673942
     -2.187187     42.196235     42.196235     84.392469
     -2.177177     41.615836     41.615836     83.231673
     -2.167167     39.605857     39.605857     79.211713
     -2.157157     36.379688     36.379688     72.759377
     -2.147147     32.366001     32.366001     64.732002
     -2.137137     28.123924     28.123924     56.247848
     -2.127127     24.178468     24.178468     48.356935
     -2.117117     20.852206     20.852206     41.704411
     -2.107107     18.182642     18.182642     36.365284
     -2.097097     15.969199     15.969199     31.938399
     -2.087087     13.919251     13.919251     27.838502
     -2.077077     11.809631     11.809631     23.619262
     -2.067067      9.581526      9.581526     19.163052
     -2.057057      7.335555      7.335555     14.671111
     -2.047047      5.252764      5.252764     10.505527
     -2.037037      3.498833      3.498833      6.997666
     -2.027027      2.161131      2.161131      4.322262
     -2.017017      1.236584      1.236584      2.473168
     -2.007007      0.658249      0.658249      1.316498
     -1.996997      0.335863      0.335863      0.671726
     -1.986987      0.190555      0.190555      0.381109
     -1.976977      0.176137      0.176137      0.352274
     -1.966967      0.288882      0.288882      0.577763
     -1.956957      0.570039      0.570039      1.140077
     -1.946947      1.102082      1.102082      2.204164
     -1.936937      1.995145      1.995145      3.990290
     -1.926927      3.359052      3.359052      6.718104
     -1.916917      5.261407      5.261407     10.522815
     -1.906907      7.681944      7.681944     15.363888
     -1.896897     10.481798     10.481798     20.963597
     -1.886887     13.406290     13.406290     26.812579
     -1.876877     16.128338     16.128338     32.256677
     -1.866867     18.322365     18.322365     36.644730
     -1.856857     19.745462     19.745462     39.490924
     -1.846847     20.300279     20.300279     40.600558
     -1.836837     20.060348     20.060348     40.120695
     -1.826827     19.247667     19.247667     38.495334
     -1.816817     18.162879     18.162879     36.325758
     -1.806807     17.083614     17.083614     34.167228
     -1.796797     16.165396     16.165396     32.330792
     -1.786787     15.389650     15.389650     30.779300
     -1.776777     14.589841     14.589841     29.179681
     -1.766767     13.549137     13.549137     27.098273
     -1.756757     12.122663     12.122663     24.245326
     -1.746747     10.323099     10.323099     20.646198
     -1.736737      8.331752      8.331752     16.663505
     -1.726727      6.441592      6.441592     12.883183
     -1.716717      4.972480      4.972480      9.944960
     -1.706707      4.200956      4.200956      8.401912
     -1.696697      4.321879      4.321879      8.643758
     -1.686687      5.430398      5.430398     10.860797
     -1.676677      7.502445      7.502445     15.004890
     -1.666667     10.365780     10.365780     20.731561
     -1.656657     13.678476     13.678476     27.356952
     -1.646647     16.946635     16.946635     33.893269
     -1.636637     19.604173     19.604173     39.208346
     -1.626627     21.147132     21.147132     42.294265
