# EIG2DOS: Utility for SIESTA to obtain the electronic density of states
#  E. Artacho, Apr 1999, A. Garcia, Apr 2012
#  Nick R. Papior, Feb 2017
# ------------------------------------------
# Eigenvalues calculated from a non-polarized calculation
# Eigenvalues read from siesta.EIG
# Kpoint weights read from siesta.KP
# Using smearing parameter:   0.0500
# Using 1000 points in the energy range
# Selected bands: 1 to: 2981
# Emin, Emax in file for selected band(s):    -27.0647985    218.3223290
# Nbands, Nspin, Nk   =   2981     1     1
# E_F                 =    -4.2847 eV --> (shifted to ZERO)
# Broadening          =     0.0500 eV
#
#        E            N(up)  (=)   N(down)         Ntot
     -5.000000     47.371089     47.371089     94.742177
     -4.989990     49.949812     49.949812     99.899623
     -4.979980     50.856765     50.856765    101.713529
     -4.969970     50.128256     50.128256    100.256512
     -4.959960     48.010037     48.010037     96.020074
     -4.949950     44.876962     44.876962     89.753923
     -4.939940     41.160913     41.160913     82.321826
     -4.929930     37.317846     37.317846     74.635692
     -4.919920     33.834309     33.834309     67.668619
     -4.909910     31.244033     31.244033     62.488066
     -4.899900     30.108906     30.108906     60.217812
     -4.889890     30.924510     30.924510     61.849020
     -4.879880     33.945168     33.945168     67.890337
     -4.869870     38.982283     38.982283     77.964567
     -4.859860     45.283490     45.283490     90.566981
     -4.849850     51.603392     51.603392    103.206783
     -4.839840     56.502721     56.502721    113.005443
     -4.829830     58.788430     58.788430    117.576860
     -4.819820     57.908292     57.908292    115.816584
     -4.809810     54.114438     54.114438    108.228876
     -4.799800     48.322277     48.322277     96.644555
     -4.789790     41.747067     41.747067     83.494135
     -4.779780     35.500499     35.500499     71.000997
     -4.769770     30.317578     30.317578     60.635155
     -4.759760     26.484280     26.484280     52.968560
     -4.749750     23.926475     23.926475     47.852951
     -4.739740     22.365890     22.365890     44.731779
     -4.729730     21.460299     21.460299     42.920599
     -4.719720     20.889481     20.889481     41.778962
     -4.709710     20.388445     20.388445     40.776891
     -4.699700     19.750621     19.750621     39.501243
     -4.689690     18.829019     18.829019     37.658038
     -4.679680     17.557092     17.557092     35.114184
     -4.669670     15.993546     15.993546     31.987092
     -4.659660     14.372039     14.372039     28.744077
     -4.649650     13.120531     13.120531     26.241062
     -4.639640     12.817176     12.817176     25.634351
     -4.629630     14.069770     14.069770     28.139539
     -4.619620     17.334544     17.334544     34.669089
     -4.609610     22.718872     22.718872     45.437743
     -4.599600     29.835556     29.835556     59.671112
     -4.589590     37.783836     37.783836     75.567672
     -4.579580     45.307965     45.307965     90.615929
     -4.569570     51.120693     51.120693    102.241386
     -4.559560     54.296078     54.296078    108.592157
     -4.549550     54.580020     54.580020    109.160040
     -4.539540     52.480843     52.480843    104.961685
     -4.529530     49.090338     49.090338     98.180677
     -4.519520     45.704466     45.704466     91.408932
     -4.509510     43.398473     43.398473     86.796946
     -4.499499     42.720636     42.720636     85.441273
     -4.489489     43.603825     43.603825     87.207650
     -4.479479     45.494020     45.494020     90.988040
     -4.469469     47.610065     47.610065     95.220130
     -4.459459     49.214251     49.214251     98.428501
     -4.449449     49.795665     49.795665     99.591329
     -4.439439     49.128384     49.128384     98.256769
     -4.429429     47.231309     47.231309     94.462617
     -4.419419     44.293363     44.293363     88.586727
     -4.409409     40.620446     40.620446     81.240891
     -4.399399     36.617688     36.617688     73.235375
     -4.389389     32.774546     32.774546     65.549091
     -4.379379     29.606830     29.606830     59.213661
     -4.369369     27.541939     27.541939     55.083878
     -4.359359     26.787710     26.787710     53.575420
     -4.349349     27.257671     27.257671     54.515343
     -4.339339     28.606735     28.606735     57.213470
     -4.329329     30.371491     30.371491     60.742982
     -4.319319     32.149710     32.149710     64.299419
     -4.309309     33.734559     33.734559     67.469117
     -4.299299     35.148903     35.148903     70.297806
     -4.289289     36.578051     36.578051     73.156103
     -4.279279     38.240094     38.240094     76.480188
     -4.269269     40.245327     40.245327     80.490654
     -4.259259     42.490075     42.490075     84.980150
     -4.249249     44.622165     44.622165     89.244330
     -4.239239     46.105985     46.105985     92.211971
     -4.229229     46.388987     46.388987     92.777973
     -4.219219     45.122171     45.122171     90.244343
     -4.209209     42.338848     42.338848     84.677696
     -4.199199     38.491796     38.491796     76.983592
     -4.189189     34.310580     34.310580     68.621161
     -4.179179     30.538691     30.538691     61.077382
     -4.169169     27.680087     27.680087     55.360174
     -4.159159     25.878091     25.878091     51.756182
     -4.149149     24.972216     24.972216     49.944433
     -4.139139     24.682417     24.682417     49.364834
     -4.129129     24.811147     24.811147     49.622295
     -4.119119     25.355122     25.355122     50.710244
     -4.109109     26.470145     26.470145     52.940291
     -4.099099     28.307114     28.307114     56.614227
     -4.089089     30.806329     30.806329     61.612659
     -4.079079     33.571017     33.571017     67.142034
     -4.069069     35.914776     35.914776     71.829551
     -4.059059     37.091136     37.091136     74.182271
     -4.049049     36.606304     36.606304     73.212609
     -4.039039     34.455120     34.455120     68.910240
     -4.029029     31.152617     31.152617     62.305235
     -4.019019     27.546003     27.546003     55.092006
     -4.009009     24.512624     24.512624     49.025248
     -3.998999     22.700028     22.700028     45.400056
     -3.988989     22.416821     22.416821     44.833643
     -3.978979     23.679112     23.679112     47.358225
     -3.968969     26.332006     26.332006     52.664013
     -3.958959     30.151156     30.151156     60.302311
     -3.948949     34.880835     34.880835     69.761670
     -3.938939     40.231490     40.231490     80.462980
     -3.928929     45.887692     45.887692     91.775385
     -3.918919     51.551535     51.551535    103.103070
     -3.908909     56.996475     56.996475    113.992950
     -3.898899     62.079172     62.079172    124.158343
     -3.888889     66.677342     66.677342    133.354685
     -3.878879     70.576353     70.576353    141.152705
     -3.868869     73.376691     73.376691    146.753381
     -3.858859     74.502065     74.502065    149.004129
     -3.848849     73.343472     73.343472    146.686943
     -3.838839     69.499800     69.499800    138.999601
     -3.828829     63.012000     63.012000    126.024001
     -3.818819     54.474210     54.474210    108.948420
     -3.808809     44.953685     44.953685     89.907371
     -3.798799     35.737563     35.737563     71.475126
     -3.788789     28.001143     28.001143     56.002287
     -3.778779     22.519597     22.519597     45.039194
     -3.768769     19.515310     19.515310     39.030621
     -3.758759     18.671500     18.671500     37.342999
     -3.748749     19.284756     19.284756     38.569513
     -3.738739     20.496773     20.496773     40.993546
     -3.728729     21.539359     21.539359     43.078718
     -3.718719     21.935765     21.935765     43.871530
     -3.708709     21.615231     21.615231     43.230462
     -3.698699     20.913953     20.913953     41.827906
     -3.688689     20.457018     20.457018     40.914036
     -3.678679     20.944572     20.944572     41.889145
     -3.668669     22.897981     22.897981     45.795962
     -3.658659     26.446395     26.446395     52.892791
     -3.648649     31.234357     31.234357     62.468715
     -3.638639     36.495476     36.495476     72.990952
     -3.628629     41.272473     41.272473     82.544946
     -3.618619     44.699088     44.699088     89.398176
     -3.608609     46.232308     46.232308     92.464616
     -3.598599     45.753274     45.753274     91.506548
     -3.588589     43.524017     43.524017     87.048034
     -3.578579     40.050069     40.050069     80.100138
     -3.568569     35.919487     35.919487     71.838973
     -3.558559     31.667288     31.667288     63.334576
     -3.548549     27.681921     27.681921     55.363842
     -3.538539     24.156078     24.156078     48.312155
     -3.528529     21.088053     21.088053     42.176105
     -3.518519     18.339925     18.339925     36.679849
     -3.508509     15.740307     15.740307     31.480614
     -3.498498     13.192972     13.192972     26.385945
     -3.488488     10.743204     10.743204     21.486409
     -3.478478      8.573428      8.573428     17.146856
     -3.468468      6.935440      6.935440     13.870879
     -3.458458      6.053346      6.053346     12.106691
     -3.448448      6.035521      6.035521     12.071042
     -3.438438      6.822081      6.822081     13.644162
     -3.428428      8.181295      8.181295     16.362590
     -3.418418      9.759995      9.759995     19.519989
     -3.408408     11.182971     11.182971     22.365941
     -3.398398     12.178213     12.178213     24.356426
     -3.388388     12.684913     12.684913     25.369826
     -3.378378     12.896326     12.896326     25.792651
     -3.368368     13.211288     13.211288     26.422577
     -3.358358     14.108136     14.108136     28.216272
     -3.348348     15.988550     15.988550     31.977101
     -3.338338     19.045083     19.045083     38.090165
     -3.328328     23.184855     23.184855     46.369711
     -3.318318     28.014525     28.014525     56.029050
     -3.308308     32.880659     32.880659     65.761317
     -3.298298     36.966939     36.966939     73.933878
     -3.288288     39.453482     39.453482     78.906964
     -3.278278     39.722001     39.722001     79.444001
     -3.268268     37.548897     37.548897     75.097793
     -3.258258     33.202033     33.202033     66.404066
     -3.248248     27.380761     27.380761     54.761522
     -3.238238     21.010106     21.010106     42.020211
     -3.228228     14.974443     14.974443     29.948886
     -3.218218      9.902511      9.902511     19.805022
     -3.208208      6.079029      6.079029     12.158058
     -3.198198      3.488479      3.488479      6.976959
     -3.188188      1.940534      1.940534      3.881068
     -3.178178      1.211209      1.211209      2.422418
     -3.168168      1.152840      1.152840      2.305680
     -3.158158      1.754332      1.754332      3.508663
     -3.148148      3.149979      3.149979      6.299958
     -3.138138      5.577268      5.577268     11.154536
     -3.128128      9.282915      9.282915     18.565830
     -3.118118     14.386453     14.386453     28.772906
     -3.108108     20.735730     20.735730     41.471459
     -3.098098     27.815752     27.815752     55.631504
     -3.088088     34.776912     34.776912     69.553825
     -3.078078     40.612368     40.612368     81.224736
     -3.068068     44.443818     44.443818     88.887636
     -3.058058     45.806237     45.806237     91.612475
     -3.048048     44.801546     44.801546     89.603092
     -3.038038     42.041906     42.041906     84.083812
     -3.028028     38.403794     38.403794     76.807589
     -3.018018     34.707578     34.707578     69.415155
     -3.008008     31.469306     31.469306     62.938613
     -2.997998     28.825826     28.825826     57.651652
     -2.987988     26.642041     26.642041     53.284083
     -2.977978     24.723891     24.723891     49.447781
     -2.967968     23.022897     23.022897     46.045793
     -2.957958     21.736307     21.736307     43.472613
     -2.947948     21.261899     21.261899     42.523799
     -2.937938     22.030651     22.030651     44.061303
     -2.927928     24.290266     24.290266     48.580532
     -2.917918     27.933206     27.933206     55.866411
     -2.907908     32.447946     32.447946     64.895892
     -2.897898     37.025209     37.025209     74.050418
     -2.887888     40.787694     40.787694     81.575387
     -2.877878     43.057487     43.057487     86.114973
     -2.867868     43.555026     43.555026     87.110052
     -2.857858     42.449514     42.449514     84.899027
     -2.847848     40.243925     40.243925     80.487850
     -2.837838     37.550065     37.550065     75.100131
     -2.827828     34.856031     34.856031     69.712063
     -2.817818     32.386707     32.386707     64.773414
     -2.807808     30.108218     30.108218     60.216436
     -2.797798     27.854589     27.854589     55.709179
     -2.787788     25.496380     25.496380     50.992761
     -2.777778     23.056839     23.056839     46.113679
     -2.767768     20.717809     20.717809     41.435619
     -2.757758     18.724275     18.724275     37.448550
     -2.747748     17.255173     17.255173     34.510345
     -2.737738     16.344674     16.344674     32.689347
     -2.727728     15.902383     15.902383     31.804767
     -2.717718     15.814276     15.814276     31.628552
     -2.707708     16.050942     16.050942     32.101884
     -2.697698     16.702883     16.702883     33.405766
     -2.687688     17.911047     17.911047     35.822094
     -2.677678     19.734246     19.734246     39.468491
     -2.667668     22.044092     22.044092     44.088183
     -2.657658     24.526804     24.526804     49.053608
     -2.647648     26.803558     26.803558     53.607115
     -2.637638     28.600949     28.600949     57.201898
     -2.627628     29.866533     29.866533     59.733066
     -2.617618     30.759055     30.759055     61.518110
     -2.607608     31.525752     31.525752     63.051504
     -2.597598     32.350029     32.350029     64.700058
     -2.587588     33.260850     33.260850     66.521700
     -2.577578     34.139154     34.139154     68.278307
     -2.567568     34.786074     34.786074     69.572148
     -2.557558     34.990201     34.990201     69.980403
     -2.547548     34.561820     34.561820     69.123639
     -2.537538     33.353309     33.353309     66.706619
     -2.527528     31.303558     31.303558     62.607117
     -2.517518     28.512453     28.512453     57.024905
     -2.507508     25.301454     25.301454     50.602907
     -2.497497     22.197752     22.197752     44.395505
     -2.487487     19.813885     19.813885     39.627771
     -2.477477     18.658351     18.658351     37.316702
     -2.467467     18.960410     18.960410     37.920820
     -2.457457     20.593092     20.593092     41.186185
     -2.447447     23.133915     23.133915     46.267831
     -2.437437     26.038605     26.038605     52.077210
     -2.427427     28.850905     28.850905     57.701809
     -2.417417     31.354389     31.354389     62.708778
     -2.407407     33.597503     33.597503     67.195005
     -2.397397     35.780362     35.780362     71.560724
     -2.387387     38.056622     38.056622     76.113243
     -2.377377     40.347150     40.347150     80.694300
     -2.367367     42.263517     42.263517     84.527033
     -2.357357     43.194303     43.194303     86.388605
     -2.347347     42.531938     42.531938     85.063877
     -2.337337     39.945545     39.945545     79.891090
     -2.327327     35.574613     35.574613     71.149226
     -2.317317     30.051052     30.051052     60.102103
     -2.307307     24.338866     24.338866     48.677731
     -2.297297     19.465057     19.465057     38.930113
     -2.287287     16.254186     16.254186     32.508371
     -2.277277     15.157194     15.157194     30.314387
     -2.267267     16.207410     16.207410     32.414819
     -2.257257     19.083240     19.083240     38.166481
     -2.247247     23.231486     23.231486     46.462972
     -2.237237     28.004863     28.004863     56.009726
     -2.227227     32.777767     32.777767     65.555534
     -2.217217     37.017706     37.017706     74.035412
     -2.207207     40.307782     40.307782     80.615564
     -2.197197     42.337933     42.337933     84.675866
     -2.187187     42.898743     42.898743     85.797486
     -2.177177     41.906065     41.906065     83.812129
     -2.167167     39.453814     39.453814     78.907628
     -2.157157     35.854467     35.854467     71.708934
     -2.147147     31.613324     31.613324     63.226648
     -2.137137     27.312302     27.312302     54.624604
     -2.127127     23.437873     23.437873     46.875746
     -2.117117     20.234414     20.234414     40.468827
     -2.107107     17.660964     17.660964     35.321929
     -2.097097     15.473737     15.473737     30.947474
     -2.087087     13.385451     13.385451     26.770903
     -2.077077     11.213847     11.213847     22.427694
     -2.067067      8.948516      8.948516     17.897033
     -2.057057      6.720539      6.720539     13.441078
     -2.047047      4.713126      4.713126      9.426251
     -2.037037      3.071781      3.071781      6.143561
     -2.027027      1.855772      1.855772      3.711544
     -2.017017      1.039227      1.039227      2.078455
     -2.007007      0.544185      0.544185      1.088371
     -1.996997      0.280954      0.280954      0.561908
     -1.986987      0.179267      0.179267      0.358533
     -1.976977      0.205882      0.205882      0.411764
     -1.966967      0.371762      0.371762      0.743524
     -1.956957      0.732264      0.732264      1.464529
     -1.946947      1.379724      1.379724      2.759448
     -1.936937      2.424273      2.424273      4.848545
     -1.926927      3.960010      3.960010      7.920021
     -1.916917      6.021041      6.021041     12.042081
     -1.906907      8.541790      8.541790     17.083581
     -1.896897     11.341153     11.341153     22.682306
     -1.886887     14.144107     14.144107     28.288214
     -1.876877     16.638707     16.638707     33.277414
     -1.866867     18.550020     18.550020     37.100041
     -1.856857     19.706158     19.706158     39.412316
     -1.846847     20.076990     20.076990     40.153980
     -1.836837     19.776267     19.776267     39.552534
     -1.826827     19.025280     19.025280     38.050560
     -1.816817     18.082469     18.082469     36.164938
     -1.806807     17.155053     17.155053     34.310106
     -1.796797     16.324752     16.324752     32.649503
     -1.786787     15.525910     15.525910     31.051820
     -1.776777     14.596530     14.596530     29.193059
     -1.766767     13.384445     13.384445     26.768890
     -1.756757     11.856489     11.856489     23.712979
     -1.746747     10.153720     10.153720     20.307441
     -1.736737      8.565002      8.565002     17.130004
     -1.726727      7.433837      7.433837     14.867673
     -1.716717      7.042176      7.042176     14.084353
     -1.706707      7.517696      7.517696     15.035392
     -1.696697      8.794574      8.794574     17.589149
     -1.686687     10.635689     10.635689     21.271378
     -1.676677     12.703955     12.703955     25.407909
     -1.666667     14.654416     14.654416     29.308831
     -1.656657     16.211057     16.211057     32.422113
     -1.646647     17.200808     17.200808     34.401616
     -1.636637     17.542675     17.542675     35.085350
     -1.626627     17.218111     17.218111     34.436222
