# EIG2DOS: Utility for SIESTA to obtain the electronic density of states
#  E. Artacho, Apr 1999, A. Garcia, Apr 2012
#  Nick R. Papior, Feb 2017
# ------------------------------------------
# Eigenvalues calculated from a non-polarized calculation
# Eigenvalues read from siesta.EIG
# Kpoint weights read from siesta.KP
# Using smearing parameter:   0.0500
# Using 1000 points in the energy range
# Selected bands: 1 to: 2981
# Emin, Emax in file for selected band(s):    -27.0870961    218.3304190
# Nbands, Nspin, Nk   =   2981     1     1
# E_F                 =    -4.2759 eV --> (shifted to ZERO)
# Broadening          =     0.0500 eV
#
#        E            N(up)  (=)   N(down)         Ntot
     -5.000000     44.678546     44.678546     89.357093
     -4.989990     46.536798     46.536798     93.073596
     -4.979980     47.390080     47.390080     94.780161
     -4.969970     47.224774     47.224774     94.449549
     -4.959960     46.057381     46.057381     92.114763
     -4.949950     43.962102     43.962102     87.924204
     -4.939940     41.112080     41.112080     82.224159
     -4.929930     37.812512     37.812512     75.625024
     -4.919920     34.511991     34.511991     69.023981
     -4.909910     31.784745     31.784745     63.569490
     -4.899900     30.272676     30.272676     60.545352
     -4.889890     30.570074     30.570074     61.140148
     -4.879880     33.046125     33.046125     66.092251
     -4.869870     37.642182     37.642182     75.284363
     -4.859860     43.733334     43.733334     87.466669
     -4.849850     50.161603     50.161603    100.323207
     -4.839840     55.494131     55.494131    110.988261
     -4.829830     58.445837     58.445837    116.891673
     -4.819820     58.298232     58.298232    116.596464
     -4.809810     55.122700     55.122700    110.245400
     -4.799800     49.705857     49.705857     99.411713
     -4.789790     43.225912     43.225912     86.451825
     -4.779780     36.846158     36.846158     73.692315
     -4.769770     31.404864     31.404864     62.809728
     -4.759760     27.296444     27.296444     54.592888
     -4.749750     24.526126     24.526126     49.052253
     -4.739740     22.851948     22.851948     45.703896
     -4.729730     21.927308     21.927308     43.854616
     -4.719720     21.398263     21.398263     42.796526
     -4.709710     20.952170     20.952170     41.904340
     -4.699700     20.337374     20.337374     40.674748
     -4.689690     19.378050     19.378050     38.756100
     -4.679680     18.000958     18.000958     36.001916
     -4.669670     16.275646     16.275646     32.551291
     -4.659660     14.451610     14.451610     28.903221
     -4.649650     12.964654     12.964654     25.929307
     -4.639640     12.387825     12.387825     24.775651
     -4.629630     13.318761     13.318761     26.637522
     -4.619620     16.217053     16.217053     32.434106
     -4.609610     21.226810     21.226810     42.453619
     -4.599600     28.038570     28.038570     56.077139
     -4.589590     35.854883     35.854883     71.709766
     -4.579580     43.510491     43.510491     87.020982
     -4.569570     49.749689     49.749689     99.499379
     -4.559560     53.590573     53.590573    107.181147
     -4.549550     54.645488     54.645488    109.290975
     -4.539540     53.261348     53.261348    106.522697
     -4.529530     50.408077     50.408077    100.816154
     -4.519520     47.350449     47.350449     94.700897
     -4.509510     45.232510     45.232510     90.465019
     -4.499499     44.735155     44.735155     89.470310
     -4.489489     45.923309     45.923309     91.846617
     -4.479479     48.307939     48.307939     96.615878
     -4.469469     51.060527     51.060527    102.121054
     -4.459459     53.275976     53.275976    106.551952
     -4.449449     54.194850     54.194850    108.389701
     -4.439439     53.344294     53.344294    106.688587
     -4.429429     50.601878     50.601878    101.203757
     -4.419419     46.203101     46.203101     92.406201
     -4.409409     40.702704     40.702704     81.405407
     -4.399399     34.884002     34.884002     69.768004
     -4.389389     29.610829     29.610829     59.221659
     -4.379379     25.639259     25.639259     51.278519
     -4.369369     23.436716     23.436716     46.873431
     -4.359359     23.071571     23.071571     46.143143
     -4.349349     24.221083     24.221083     48.442165
     -4.339339     26.302082     26.302082     52.604165
     -4.329329     28.677775     28.677775     57.355550
     -4.319319     30.862002     30.862002     61.724004
     -4.309309     32.646441     32.646441     65.292882
     -4.299299     34.112557     34.112557     68.225114
     -4.289289     35.536989     35.536989     71.073979
     -4.279279     37.232826     37.232826     74.465652
     -4.269269     39.380825     39.380825     78.761649
     -4.259259     41.902062     41.902062     83.804124
     -4.249249     44.416822     44.416822     88.833644
     -4.239239     46.320740     46.320740     92.641480
     -4.229229     46.975511     46.975511     93.951021
     -4.219219     45.956928     45.956928     91.913856
     -4.209209     43.254964     43.254964     86.509927
     -4.199199     39.320655     39.320655     78.641310
     -4.189189     34.920857     34.920857     69.841715
     -4.179179     30.862950     30.862950     61.725901
     -4.169169     27.723049     27.723049     55.446099
     -4.159159     25.705250     25.705250     51.410499
     -4.149149     24.682053     24.682053     49.364106
     -4.139139     24.369729     24.369729     48.739459
     -4.129129     24.532681     24.532681     49.065362
     -4.119119     25.110713     25.110713     50.221426
     -4.109109     26.210118     26.210118     52.420236
     -4.099099     27.967166     27.967166     55.934332
     -4.089089     30.356301     30.356301     60.712601
     -4.079079     33.051861     33.051861     66.103723
     -4.069069     35.439128     35.439128     70.878255
     -4.059059     36.800831     36.800831     73.601662
     -4.049049     36.606351     36.606351     73.212702
     -4.039039     34.760477     34.760477     69.520954
     -4.029029     31.678524     31.678524     63.357049
     -4.019019     28.146725     28.146725     56.293450
     -4.009009     25.044670     25.044670     50.089339
     -3.998999     23.073710     23.073710     46.147421
     -3.988989     22.611525     22.611525     45.223050
     -3.978979     23.722715     23.722715     47.445430
     -3.968969     26.265215     26.265215     52.530430
     -3.958959     30.000575     30.000575     60.001151
     -3.948949     34.651958     34.651958     69.303917
     -3.938939     39.916752     39.916752     79.833503
     -3.928929     45.477463     45.477463     90.954926
     -3.918919     51.040388     51.040388    102.080776
     -3.908909     56.386460     56.386460    112.772919
     -3.898899     61.386617     61.386617    122.773233
     -3.888889     65.945646     65.945646    131.891292
     -3.878879     69.888196     69.888196    139.776393
     -3.868869     72.853302     72.853302    145.706603
     -3.858859     74.280542     74.280542    148.561084
     -3.848849     73.534964     73.534964    147.069929
     -3.838839     70.144331     70.144331    140.288663
     -3.828829     64.051163     64.051163    128.102326
     -3.818819     55.756529     55.756529    111.513058
     -3.808809     46.272556     46.272556     92.545113
     -3.798799     36.887142     36.887142     73.774284
     -3.788789     28.829313     28.829313     57.658626
     -3.778779     22.961084     22.961084     45.922168
     -3.768769     19.597814     19.597814     39.195628
     -3.758759     18.497171     18.497171     36.994342
     -3.748749     18.995060     18.995060     37.990121
     -3.738739     20.230765     20.230765     40.461531
     -3.728729     21.395449     21.395449     42.790899
     -3.718719     21.945971     21.945971     43.891941
     -3.708709     21.738569     21.738569     43.477139
     -3.698699     21.051528     21.051528     42.103056
     -3.688689     20.485792     20.485792     40.971584
     -3.678679     20.760783     20.760783     41.521565
     -3.668669     22.456521     22.456521     44.913043
     -3.658659     25.781741     25.781741     51.563482
     -3.648649     30.453851     30.453851     60.907703
     -3.638639     35.746503     35.746503     71.493005
     -3.628629     40.696714     40.696714     81.393428
     -3.618619     44.392941     44.392941     88.785883
     -3.608609     46.228332     46.228332     92.456663
     -3.598599     46.025573     46.025573     92.051147
     -3.588589     44.008783     44.008783     88.017566
     -3.578579     40.668461     40.668461     81.336923
     -3.568569     36.594740     36.594740     73.189481
     -3.558559     32.335410     32.335410     64.670820
     -3.548549     28.298859     28.298859     56.597718
     -3.538539     24.702194     24.702194     49.404389
     -3.528529     21.567237     21.567237     43.134474
     -3.518519     18.770788     18.770788     37.541576
     -3.508509     16.141253     16.141253     32.282507
     -3.498498     13.567612     13.567612     27.135225
     -3.488488     11.073231     11.073231     22.146462
     -3.478478      8.822229      8.822229     17.644457
     -3.468468      7.060534      7.060534     14.121068
     -3.458458      6.022747      6.022747     12.045494
     -3.448448      5.842896      5.842896     11.685792
     -3.438438      6.496413      6.496413     12.992826
     -3.428428      7.787202      7.787202     15.574405
     -3.418418      9.385859      9.385859     18.771718
     -3.408408     10.917349     10.917349     21.834697
     -3.398398     12.080512     12.080512     24.161025
     -3.388388     12.760738     12.760738     25.521476
     -3.378378     13.087522     13.087522     26.175045
     -3.368368     13.405000     13.405000     26.809999
     -3.358358     14.161996     14.161996     28.323993
     -3.348348     15.765198     15.765198     31.530396
     -3.338338     18.449565     18.449565     36.899130
     -3.328328     22.199605     22.199605     44.399211
     -3.318318     26.724373     26.724373     53.448745
     -3.308308     31.475889     31.475889     62.951778
     -3.298298     35.712495     35.712495     71.424990
     -3.288288     38.623211     38.623211     77.246422
     -3.278278     39.515964     39.515964     79.031928
     -3.268268     38.026930     38.026930     76.053860
     -3.258258     34.264800     34.264800     68.529599
     -3.248248     28.808118     28.808118     57.616236
     -3.238238     22.538218     22.538218     45.076435
     -3.228228     16.375866     16.375866     32.751731
     -3.218218     11.037370     11.037370     22.074741
     -3.208208      6.905236      6.905236     13.810473
     -3.198198      4.040226      4.040226      8.080452
     -3.188188      2.294998      2.294998      4.589996
     -3.178178      1.460866      1.460866      2.921732
     -3.168168      1.390552      1.390552      2.781104
     -3.158158      2.067973      2.067973      4.135946
     -3.148148      3.617744      3.617744      7.235487
     -3.138138      6.255558      6.255558     12.511116
     -3.128128     10.185328     10.185328     20.370655
     -3.118118     15.462234     15.462234     30.924467
     -3.108108     21.864081     21.864081     43.728163
     -3.098098     28.832026     28.832026     57.664052
     -3.088088     35.534220     35.534220     71.068440
     -3.078078     41.061132     41.061132     82.122264
     -3.068068     44.693519     44.693519     89.387038
     -3.058058     46.130672     46.130672     92.261344
     -3.048048     45.566673     45.566673     91.133345
     -3.038038     43.568069     43.568069     87.136139
     -3.028028     40.808170     40.808170     81.616340
     -3.018018     37.792736     37.792736     75.585473
     -3.008008     34.717802     34.717802     69.435603
     -2.997998     31.524403     31.524403     63.048805
     -2.987988     28.102096     28.102096     56.204193
     -2.977978     24.513119     24.513119     49.026238
     -2.967968     21.108458     21.108458     42.216916
     -2.957958     18.477755     18.477755     36.955509
     -2.947948     17.264985     17.264985     34.529970
     -2.937938     17.938056     17.938056     35.876112
     -2.927928     20.604278     20.604278     41.208556
     -2.917918     24.932410     24.932410     49.864820
     -2.907908     30.202638     30.202638     60.405276
     -2.897898     35.471626     35.471626     70.943253
     -2.887888     39.809543     39.809543     79.619085
     -2.877878     42.540060     42.540060     85.080119
     -2.867868     43.403703     43.403703     86.807406
     -2.857858     42.583900     42.583900     85.167801
     -2.847848     40.584989     40.584989     81.169978
     -2.837838     38.013152     38.013152     76.026304
     -2.827828     35.353914     35.353914     70.707828
     -2.817818     32.839434     32.839434     65.678869
     -2.807808     30.453449     30.453449     60.906897
     -2.797798     28.053524     28.053524     56.107048
     -2.787788     25.534288     25.534288     51.068577
     -2.777778     22.940451     22.940451     45.880901
     -2.767768     20.472281     20.472281     40.944563
     -2.757758     18.390089     18.390089     36.780177
     -2.747748     16.882459     16.882459     33.764918
     -2.737738     15.982198     15.982198     31.964396
     -2.727728     15.582002     15.582002     31.164005
     -2.717718     15.537183     15.537183     31.074365
     -2.707708     15.784902     15.784902     31.569804
     -2.697698     16.396237     16.396237     32.792473
     -2.687688     17.519911     17.519911     35.039823
     -2.677678     19.249535     19.249535     38.499071
     -2.667668     21.501953     21.501953     43.003906
     -2.657658     23.993707     23.993707     47.987414
     -2.647648     26.342263     26.342263     52.684526
     -2.637638     28.236482     28.236482     56.472963
     -2.627628     29.572780     29.572780     59.145561
     -2.617618     30.474477     30.474477     60.948954
     -2.607608     31.188624     31.188624     62.377248
     -2.597598     31.932278     31.932278     63.864557
     -2.587588     32.782763     32.782763     65.565527
     -2.577578     33.661618     33.661618     67.323237
     -2.567568     34.390588     34.390588     68.781177
     -2.557558     34.759363     34.759363     69.518726
     -2.547548     34.564814     34.564814     69.129627
     -2.537538     33.632049     33.632049     67.264097
     -2.527528     31.855294     31.855294     63.710587
     -2.517518     29.273597     29.273597     58.547195
     -2.507508     26.145527     26.145527     52.291054
     -2.497497     22.958233     22.958233     45.916465
     -2.487487     20.330001     20.330001     40.660003
     -2.477477     18.827233     18.827233     37.654466
     -2.467467     18.772831     18.772831     37.545661
     -2.457457     20.136365     20.136365     40.272731
     -2.447447     22.560465     22.560465     45.120931
     -2.437437     25.514006     25.514006     51.028013
     -2.427427     28.503052     28.503052     57.006104
     -2.417417     31.242623     31.242623     62.485246
     -2.407407     33.709533     33.709533     67.419066
     -2.397397     36.052556     36.052556     72.105112
     -2.387387     38.406102     38.406102     76.812203
     -2.377377     40.703790     40.703790     81.407580
     -2.367367     42.593024     42.593024     85.186048
     -2.357357     43.506537     43.506537     87.013073
     -2.347347     42.871592     42.871592     85.743183
     -2.337337     40.367666     40.367666     80.735332
     -2.327327     36.114821     36.114821     72.229642
     -2.317317     30.704583     30.704583     61.409167
     -2.307307     25.058799     25.058799     50.117598
     -2.297297     20.179247     20.179247     40.358493
     -2.287287     16.890059     16.890059     33.780118
     -2.277277     15.660920     15.660920     31.321841
     -2.267267     16.550017     16.550017     33.100033
     -2.257257     19.255457     19.255457     38.510914
     -2.247247     23.234921     23.234921     46.469841
     -2.237237     27.846855     27.846855     55.693709
     -2.227227     32.472850     32.472850     64.945701
     -2.217217     36.593655     36.593655     73.187310
     -2.207207     39.811111     39.811111     79.622221
     -2.197197     41.833354     41.833354     83.666709
     -2.187187     42.459375     42.459375     84.918751
     -2.177177     41.595686     41.595686     83.191372
     -2.167167     39.307650     39.307650     78.615300
     -2.157157     35.867913     35.867913     71.735825
     -2.147147     31.745800     31.745800     63.491600
     -2.137137     27.506081     27.506081     55.012162
     -2.127127     23.643109     23.643109     47.286217
     -2.117117     20.427555     20.427555     40.855111
     -2.107107     17.847490     17.847490     35.694980
     -2.097097     15.675469     15.675469     31.350937
     -2.087087     13.621426     13.621426     27.242853
     -2.077077     11.486174     11.486174     22.972348
     -2.067067      9.239968      9.239968     18.479937
     -2.057057      7.002810      7.002810     14.005620
     -2.047047      4.959133      4.959133      9.918266
     -2.037037      3.264936      3.264936      6.529872
     -2.027027      1.992710      1.992710      3.985420
     -2.017017      1.126760      1.126760      2.253519
     -2.007007      0.593562      0.593562      1.187124
     -1.996997      0.302313      0.302313      0.604626
     -1.986987      0.177602      0.177602      0.355205
     -1.976977      0.178500      0.178500      0.357000
     -1.966967      0.306888      0.306888      0.613776
     -1.956957      0.609194      0.609194      1.218389
     -1.946947      1.171916      1.171916      2.343833
     -1.936937      2.106918      2.106918      4.213836
     -1.926927      3.522036      3.522036      7.044072
     -1.916917      5.478236      5.478236     10.956472
     -1.906907      7.944530      7.944530     15.889061
     -1.896897     10.769806     10.769806     21.539612
     -1.886887     13.689504     13.689504     27.379008
     -1.876877     16.372726     16.372726     32.745452
     -1.866867     18.498011     18.498011     36.996021
     -1.856857     19.833890     19.833890     39.667781
     -1.846847     20.299057     20.299057     40.598113
     -1.836837     19.983743     19.983743     39.967486
     -1.826827     19.123106     19.123106     38.246212
     -1.816817     18.024230     18.024230     36.048459
     -1.806807     16.964351     16.964351     33.928703
     -1.796797     16.096854     16.096854     32.193708
     -1.786787     15.409993     15.409993     30.819987
     -1.776777     14.766306     14.766306     29.532612
     -1.766767     14.009277     14.009277     28.018555
     -1.756757     13.081616     13.081616     26.163233
     -1.746747     12.086747     12.086747     24.173494
     -1.736737     11.254612     11.254612     22.509225
     -1.726727     10.828076     10.828076     21.656152
     -1.716717     10.933049     10.933049     21.866098
     -1.706707     11.505675     11.505675     23.011350
     -1.696697     12.318014     12.318014     24.636028
     -1.686687     13.088133     13.088133     26.176266
     -1.676677     13.612471     13.612471     27.224942
     -1.666667     13.845319     13.845319     27.690639
     -1.656657     13.881422     13.881422     27.762844
     -1.646647     13.856369     13.856369     27.712738
     -1.636637     13.830343     13.830343     27.660686
     -1.626627     13.731111     13.731111     27.462223
