# EIG2DOS: Utility for SIESTA to obtain the electronic density of states
#  E. Artacho, Apr 1999, A. Garcia, Apr 2012
#  Nick R. Papior, Feb 2017
# ------------------------------------------
# Eigenvalues calculated from a non-polarized calculation
# Eigenvalues read from siesta.EIG
# Kpoint weights read from siesta.KP
# Using smearing parameter:   0.0500
# Using 1000 points in the energy range
# Selected bands: 1 to: 2981
# Emin, Emax in file for selected band(s):    -27.0507293    218.3132800
# Nbands, Nspin, Nk   =   2981     1     1
# E_F                 =    -4.3027 eV --> (shifted to ZERO)
# Broadening          =     0.0500 eV
#
#        E            N(up)  (=)   N(down)         Ntot
     -5.000000     45.347168     45.347168     90.694336
     -4.989990     47.664894     47.664894     95.329787
     -4.979980     48.685299     48.685299     97.370597
     -4.969970     48.436547     48.436547     96.873094
     -4.959960     47.046632     47.046632     94.093265
     -4.949950     44.710494     44.710494     89.420988
     -4.939940     41.680491     41.680491     83.360982
     -4.929930     38.280041     38.280041     76.560081
     -4.919920     34.927115     34.927115     69.854231
     -4.909910     32.145868     32.145868     64.291736
     -4.899900     30.538792     30.538792     61.077583
     -4.889890     30.691667     30.691667     61.383334
     -4.879880     33.001706     33.001706     66.003412
     -4.869870     37.464646     37.464646     74.929291
     -4.859860     43.512847     43.512847     87.025693
     -4.849850     50.020243     50.020243    100.040487
     -4.839840     55.541071     55.541071    111.082143
     -4.829830     58.733446     58.733446    117.466892
     -4.819820     58.800689     58.800689    117.601378
     -4.809810     55.747150     55.747150    111.494299
     -4.799800     50.328817     50.328817    100.657634
     -4.789790     43.735958     43.735958     87.471915
     -4.779780     37.174508     37.174508     74.349017
     -4.769770     31.535738     31.535738     63.071476
     -4.759760     27.260201     27.260201     54.520402
     -4.749750     24.383389     24.383389     48.766778
     -4.739740     22.675585     22.675585     45.351170
     -4.729730     21.785772     21.785772     43.571543
     -4.719720     21.342134     21.342134     42.684268
     -4.709710     21.005886     21.005886     42.011773
     -4.699700     20.497530     20.497530     40.995060
     -4.689690     19.617196     19.617196     39.234392
     -4.679680     18.273165     18.273165     36.546329
     -4.669670     16.519990     16.519990     33.039980
     -4.659660     14.593015     14.593015     29.186029
     -4.649650     12.916071     12.916071     25.832141
     -4.639640     12.060408     12.060408     24.120816
     -4.629630     12.644816     12.644816     25.289632
     -4.619620     15.183761     15.183761     30.367522
     -4.609610     19.908973     19.908973     39.817947
     -4.599600     26.611206     26.611206     53.222412
     -4.589590     34.568050     34.568050     69.136101
     -4.579580     42.623037     42.623037     85.246073
     -4.569570     49.440928     49.440928     98.881855
     -4.559560     53.886268     53.886268    107.772537
     -4.549550     55.393465     55.393465    110.786930
     -4.539540     54.169944     54.169944    108.339888
     -4.529530     51.129347     51.129347    102.258694
     -4.519520     47.568712     47.568712     95.137424
     -4.509510     44.720151     44.720151     89.440303
     -4.499499     43.360123     43.360123     86.720247
     -4.489489     43.622829     43.622829     87.245659
     -4.479479     45.063810     45.063810     90.127621
     -4.469469     46.911026     46.911026     93.822051
     -4.459459     48.375416     48.375416     96.750831
     -4.449449     48.893692     48.893692     97.787384
     -4.439439     48.231082     48.231082     96.462165
     -4.429429     46.447200     46.447200     92.894400
     -4.419419     43.786688     43.786688     87.573376
     -4.409409     40.572345     40.572345     81.144690
     -4.399399     37.149098     37.149098     74.298196
     -4.389389     33.874352     33.874352     67.748705
     -4.379379     31.110699     31.110699     62.221398
     -4.369369     29.179082     29.179082     58.358164
     -4.359359     28.272189     28.272189     56.544378
     -4.349349     28.375307     28.375307     56.750614
     -4.339339     29.255199     29.255199     58.510398
     -4.329329     30.543262     30.543262     61.086524
     -4.319319     31.881746     31.881746     63.763491
     -4.309309     33.062789     33.062789     66.125578
     -4.299299     34.094757     34.094757     68.189514
     -4.289289     35.169989     35.169989     70.339977
     -4.279279     36.552605     36.552605     73.105210
     -4.269269     38.430928     38.430928     76.861855
     -4.259259     40.785015     40.785015     81.570031
     -4.249249     43.317019     43.317019     86.634039
     -4.239239     45.483612     45.483612     90.967224
     -4.229229     46.644403     46.644403     93.288806
     -4.219219     46.290723     46.290723     92.581447
     -4.209209     44.264102     44.264102     88.528203
     -4.199199     40.854554     40.854554     81.709109
     -4.189189     36.715131     36.715131     73.430261
     -4.179179     32.624348     32.624348     65.248695
     -4.169169     29.212877     29.212877     58.425753
     -4.159159     26.787561     26.787561     53.575121
     -4.149149     25.324992     25.324992     50.649984
     -4.139139     24.611882     24.611882     49.223764
     -4.129129     24.438950     24.438950     48.877900
     -4.119119     24.741053     24.741053     49.482107
     -4.109109     25.613477     25.613477     51.226954
     -4.099099     27.198333     27.198333     54.396666
     -4.089089     29.500743     29.500743     59.001487
     -4.079079     32.238271     32.238271     64.476543
     -4.069069     34.824931     34.824931     69.649862
     -4.059059     36.531080     36.531080     73.062159
     -4.049049     36.763296     36.763296     73.526592
     -4.039039     35.328960     35.328960     70.657921
     -4.029029     32.545133     32.545133     65.090265
     -4.019019     29.132751     29.132751     58.265501
     -4.009009     25.956178     25.956178     51.912357
     -3.998999     23.746820     23.746820     47.493641
     -3.988989     22.938696     22.938696     45.877391
     -3.978979     23.658765     23.658765     47.317531
     -3.968969     25.820401     25.820401     51.640801
     -3.958959     29.228331     29.228331     58.456663
     -3.948949     33.634119     33.634119     67.268238
     -3.938939     38.745604     38.745604     77.491207
     -3.928929     44.235624     44.235624     88.471247
     -3.918919     49.784533     49.784533     99.569067
     -3.908909     55.143925     55.143925    110.287850
     -3.898899     60.170343     60.170343    120.340685
     -3.888889     64.783163     64.783163    129.566326
     -3.878879     68.849922     68.849922    137.699844
     -3.868869     72.061731     72.061731    144.123462
     -3.858859     73.888916     73.888916    147.777833
     -3.848849     73.679140     73.679140    147.358280
     -3.838839     70.886752     70.886752    141.773503
     -3.828829     65.342181     65.342181    130.684363
     -3.818819     57.431887     57.431887    114.863775
     -3.808809     48.089898     48.089898     96.179796
     -3.798799     38.587709     38.587709     77.175417
     -3.788789     30.201903     30.201903     60.403807
     -3.778779     23.887256     23.887256     47.774513
     -3.768769     20.067224     20.067224     40.134448
     -3.758759     18.593518     18.593518     37.187037
     -3.748749     18.861170     18.861170     37.722341
     -3.738739     20.024356     20.024356     40.048711
     -3.728729     21.246559     21.246559     42.493118
     -3.718719     21.925015     21.925015     43.850030
     -3.708709     21.841544     21.841544     43.683087
     -3.698699     21.205853     21.205853     42.411706
     -3.688689     20.576150     20.576150     41.152300
     -3.678679     20.669021     20.669021     41.338042
     -3.668669     22.104472     22.104472     44.208945
     -3.658659     25.162871     25.162871     50.325742
     -3.648649     29.641636     29.641636     59.283272
     -3.638639     34.875319     34.875319     69.750638
     -3.628629     39.922397     39.922397     79.844794
     -3.618619     43.849143     43.849143     87.698286
     -3.608609     45.995723     45.995723     91.991446
     -3.598599     46.122803     46.122803     92.245607
     -3.588589     44.402358     44.402358     88.804716
     -3.578579     41.291339     41.291339     82.582677
     -3.568569     37.364284     37.364284     74.728568
     -3.558559     33.167396     33.167396     66.334791
     -3.548549     29.118871     29.118871     58.237742
     -3.538539     25.455405     25.455405     50.910811
     -3.528529     22.224391     22.224391     44.448782
     -3.518519     19.326971     19.326971     38.653942
     -3.508509     16.606936     16.606936     33.213871
     -3.498498     13.956011     13.956011     27.912023
     -3.488488     11.390248     11.390248     22.780495
     -3.478478      9.063270      9.063270     18.126539
     -3.468468      7.214411      7.214411     14.428822
     -3.458458      6.079613      6.079613     12.159227
     -3.448448      5.802396      5.802396     11.604793
     -3.438438      6.373013      6.373013     12.746027
     -3.428428      7.610657      7.610657     15.221314
     -3.418418      9.195636      9.195636     18.391272
     -3.408408     10.751411     10.751411     21.502822
     -3.398398     11.961444     11.961444     23.922888
     -3.388388     12.684556     12.684556     25.369112
     -3.378378     13.020510     13.020510     26.041021
     -3.368368     13.290767     13.290767     26.581535
     -3.358358     13.936378     13.936378     27.872757
     -3.348348     15.373793     15.373793     30.747587
     -3.338338     17.863470     17.863470     35.726940
     -3.328328     21.427764     21.427764     42.855528
     -3.318318     25.822341     25.822341     51.644682
     -3.308308     30.548515     30.548515     61.097030
     -3.298298     34.904379     34.904379     69.808757
     -3.288288     38.091434     38.091434     76.182867
     -3.278278     39.387639     39.387639     78.775277
     -3.268268     38.355931     38.355931     76.711862
     -3.258258     35.008175     35.008175     70.016351
     -3.248248     29.836180     29.836180     59.672360
     -3.238238     23.675525     23.675525     47.351050
     -3.228228     17.454211     17.454211     34.908422
     -3.218218     11.937061     11.937061     23.874121
     -3.208208      7.569311      7.569311     15.138621
     -3.198198      4.460382      4.460382      8.920765
     -3.188188      2.478328      2.478328      4.956657
     -3.178178      1.388753      1.388753      2.777506
     -3.168168      0.978272      0.978272      1.956545
     -3.158158      1.131949      1.131949      2.263897
     -3.148148      1.860736      1.860736      3.721472
     -3.138138      3.286067      3.286067      6.572133
     -3.128128      5.588209      5.588209     11.176418
     -3.118118      8.924796      8.924796     17.849592
     -3.108108     13.334193     13.334193     26.668386
     -3.098098     18.653011     18.653011     37.306022
     -3.088088     24.485904     24.485904     48.971808
     -3.078078     30.255314     30.255314     60.510628
     -3.068068     35.326114     35.326114     70.652228
     -3.058058     39.159908     39.159908     78.319815
     -3.048048     41.432911     41.432911     82.865822
     -3.038038     42.069346     42.069346     84.138691
     -3.028028     41.192462     41.192462     82.384924
     -3.018018     39.043999     39.043999     78.087997
     -3.008008     35.933155     35.933155     71.866310
     -2.997998     32.239300     32.239300     64.478599
     -2.987988     28.438294     28.438294     56.876588
     -2.977978     25.095304     25.095304     50.190608
     -2.967968     22.789036     22.789036     45.578072
     -2.957958     21.984261     21.984261     43.968521
     -2.947948     22.908929     22.908929     45.817858
     -2.937938     25.490558     25.490558     50.981116
     -2.927928     29.370772     29.370772     58.741543
     -2.917918     33.978947     33.978947     67.957894
     -2.907908     38.633069     38.633069     77.266139
     -2.897898     42.648380     42.648380     85.296760
     -2.887888     45.449833     45.449833     90.899667
     -2.877878     46.681660     46.681660     93.363319
     -2.867868     46.287772     46.287772     92.575545
     -2.857858     44.522912     44.522912     89.045824
     -2.847848     41.868453     41.868453     83.736905
     -2.837838     38.869014     38.869014     77.738028
     -2.827828     35.951775     35.951775     71.903550
     -2.817818     33.308031     33.308031     66.616061
     -2.807808     30.890503     30.890503     61.781006
     -2.797798     28.522062     28.522062     57.044124
     -2.787788     26.053824     26.053824     52.107648
     -2.777778     23.486070     23.486070     46.972140
     -2.767768     20.988644     20.988644     41.977289
     -2.757758     18.816066     18.816066     37.632131
     -2.747748     17.173542     17.173542     34.347084
     -2.737738     16.117902     16.117902     32.235804
     -2.727728     15.554673     15.554673     31.109347
     -2.717718     15.331501     15.331501     30.663003
     -2.707708     15.365563     15.365563     30.731126
     -2.697698     15.718388     15.718388     31.436775
     -2.687688     16.562984     16.562984     33.125968
     -2.677678     18.057575     18.057575     36.115150
     -2.667668     20.203858     20.203858     40.407717
     -2.657658     22.783352     22.783352     45.566704
     -2.647648     25.419969     25.419969     50.839939
     -2.637638     27.737541     27.737541     55.475082
     -2.627628     29.519262     29.519262     59.038525
     -2.617618     30.774785     30.774785     61.549571
     -2.607608     31.682127     31.682127     63.364255
     -2.597598     32.452496     32.452496     64.904992
     -2.587588     33.208000     33.208000     66.415999
     -2.577578     33.937032     33.937032     67.874064
     -2.567568     34.525808     34.525808     69.051616
     -2.557558     34.814770     34.814770     69.629540
     -2.547548     34.634052     34.634052     69.268104
     -2.537538     33.818680     33.818680     67.637360
     -2.527528     32.240398     32.240398     64.480796
     -2.517518     29.880499     29.880499     59.760997
     -2.507508     26.917777     26.917777     53.835554
     -2.497497     23.766218     23.766218     47.532437
     -2.487487     21.008341     21.008341     42.016683
     -2.477477     19.228458     19.228458     38.456916
     -2.467467     18.814101     18.814101     37.628202
     -2.457457     19.819999     19.819999     39.639998
     -2.447447     21.962210     21.962210     43.924420
     -2.437437     24.747582     24.747582     49.495163
     -2.427427     27.678747     27.678747     55.357495
     -2.417417     30.438480     30.438480     60.876961
     -2.407407     32.966118     32.966118     65.932237
     -2.397397     35.390147     35.390147     70.780295
     -2.387387     37.851957     37.851957     75.703914
     -2.377377     40.312381     40.312381     80.624762
     -2.367367     42.446008     42.446008     84.892016
     -2.357357     43.689716     43.689716     87.379431
     -2.347347     43.438112     43.438112     86.876225
     -2.337337     41.304575     41.304575     82.609150
     -2.327327     37.329752     37.329752     74.659505
     -2.317317     32.040546     32.040546     64.081093
     -2.307307     26.331942     26.331942     52.663884
     -2.297297     21.224059     21.224059     42.448119
     -2.287287     17.594389     17.594389     35.188777
     -2.277277     15.979833     15.979833     31.959667
     -2.267267     16.498246     16.498246     32.996492
     -2.257257     18.886900     18.886900     37.773801
     -2.247247     22.620855     22.620855     45.241709
     -2.237237     27.062232     27.062232     54.124464
     -2.227227     31.594194     31.594194     63.188388
     -2.217217     35.705165     35.705165     71.410330
     -2.207207     39.010366     39.010366     78.020732
     -2.197197     41.227134     41.227134     82.454267
     -2.187187     42.145037     42.145037     84.290074
     -2.177177     41.632632     41.632632     83.265263
     -2.167167     39.691807     39.691807     79.383614
     -2.157157     36.524369     36.524369     73.048737
     -2.147147     32.547870     32.547870     65.095741
     -2.137137     28.315884     28.315884     56.631768
     -2.127127     24.356498     24.356498     48.712996
     -2.117117     21.002791     21.002791     42.005581
     -2.107107     18.305154     18.305154     36.610309
     -2.097097     16.072369     16.072369     32.144737
     -2.087087     14.014217     14.014217     28.028435
     -2.077077     11.903632     11.903632     23.807264
     -2.067067      9.675203      9.675203     19.350406
     -2.057057      7.424298      7.424298     14.848595
     -2.047047      5.330280      5.330280     10.660560
     -2.037037      3.560527      3.560527      7.121054
     -2.027027      2.205722      2.205722      4.411444
     -2.017017      1.265828      1.265828      2.531655
     -2.007007      0.675560      0.675560      1.351119
     -1.996997      0.344803      0.344803      0.689606
     -1.986987      0.193756      0.193756      0.387511
     -1.976977      0.174747      0.174747      0.349494
     -1.966967      0.282375      0.282375      0.564751
     -1.956957      0.556259      0.556259      1.112518
     -1.946947      1.077554      1.077554      2.155109
     -1.936937      1.955840      1.955840      3.911681
     -1.926927      3.301702      3.301702      6.603404
     -1.916917      5.185189      5.185189     10.370377
     -1.906907      7.589950      7.589950     15.179901
     -1.896897     10.381537     10.381537     20.763075
     -1.886887     13.308658     13.308658     26.617316
     -1.876877     16.045171     16.045171     32.090343
     -1.866867     18.263315     18.263315     36.526629
     -1.856857     19.715283     19.715283     39.430567
     -1.846847     20.297456     20.297456     40.594912
     -1.836837     20.077555     20.077555     40.155111
     -1.826827     19.274100     19.274100     38.548201
     -1.816817     18.187970     18.187970     36.375939
     -1.806807     17.101060     17.101060     34.202120
     -1.796797     16.175979     16.175979     32.351959
     -1.786787     15.401572     15.401572     30.803143
     -1.776777     14.616585     14.616585     29.233170
     -1.766767     13.606773     13.606773     27.213546
     -1.756757     12.229696     12.229696     24.459393
     -1.746747     10.505264     10.505264     21.010528
     -1.736737      8.631075      8.631075     17.262149
     -1.726727      6.924553      6.924553     13.849105
     -1.716717      5.728332      5.728332     11.456665
     -1.706707      5.321146      5.321146     10.642293
     -1.696697      5.857890      5.857890     11.715780
     -1.686687      7.340278      7.340278     14.680557
     -1.676677      9.610647      9.610647     19.221294
     -1.666667     12.366368     12.366368     24.732737
     -1.656657     15.198926     15.198926     30.397851
     -1.646647     17.659428     17.659428     35.318855
     -1.636637     19.341995     19.341995     38.683991
     -1.626627     19.966914     19.966914     39.933828
