# EIG2DOS: Utility for SIESTA to obtain the electronic density of states
#  E. Artacho, Apr 1999, A. Garcia, Apr 2012
#  Nick R. Papior, Feb 2017
# ------------------------------------------
# Eigenvalues calculated from a non-polarized calculation
# Eigenvalues read from siesta.EIG
# Kpoint weights read from siesta.KP
# Using smearing parameter:   0.0500
# Using 1000 points in the energy range
# Selected bands: 1 to: 2981
# Emin, Emax in file for selected band(s):    -27.2355069    218.3989160
# Nbands, Nspin, Nk   =   2981     1     1
# E_F                 =    -4.1938 eV --> (shifted to ZERO)
# Broadening          =     0.0500 eV
#
#        E            N(up)  (=)   N(down)         Ntot
     -5.000000     31.738336     31.738336     63.476672
     -4.989990     36.953848     36.953848     73.907696
     -4.979980     41.871491     41.871491     83.742983
     -4.969970     45.624304     45.624304     91.248607
     -4.959960     47.490093     47.490093     94.980186
     -4.949950     47.134220     47.134220     94.268440
     -4.939940     44.726013     44.726013     89.452026
     -4.929930     40.896934     40.896934     81.793868
     -4.919920     36.581028     36.581028     73.162055
     -4.909910     32.810460     32.810460     65.620919
     -4.899900     30.520266     30.520266     61.040532
     -4.889890     30.377269     30.377269     60.754538
     -4.879880     32.631687     32.631687     65.263373
     -4.869870     37.011689     37.011689     74.023379
     -4.859860     42.714251     42.714251     85.428502
     -4.849850     48.545483     48.545483     97.090967
     -4.839840     53.210328     53.210328    106.420655
     -4.829830     55.670878     55.670878    111.341757
     -4.819820     55.439041     55.439041    110.878082
     -4.809810     52.684070     52.684070    105.368140
     -4.799800     48.116126     48.116126     96.232252
     -4.789790     42.707845     42.707845     85.415690
     -4.779780     37.380166     37.380166     74.760331
     -4.769770     32.774879     32.774879     65.549759
     -4.759760     29.176035     29.176035     58.352070
     -4.749750     26.566763     26.566763     53.133525
     -4.739740     24.758248     24.758248     49.516497
     -4.729730     23.519792     23.519792     47.039584
     -4.719720     22.663136     22.663136     45.326272
     -4.709710     22.069351     22.069351     44.138702
     -4.699700     21.674907     21.674907     43.349813
     -4.689690     21.446248     21.446248     42.892496
     -4.679680     21.368000     21.368000     42.736000
     -4.669670     21.454614     21.454614     42.909229
     -4.659660     21.778732     21.778732     43.557464
     -4.649650     22.498942     22.498942     44.997883
     -4.639640     23.864749     23.864749     47.729499
     -4.629630     26.175372     26.175372     52.350745
     -4.619620     29.677088     29.677088     59.354176
     -4.609610     34.411825     34.411825     68.823650
     -4.599600     40.074493     40.074493     80.148987
     -4.589590     45.969212     45.969212     91.938423
     -4.579580     51.136316     51.136316    102.272632
     -4.569570     54.642483     54.642483    109.284966
     -4.559560     55.925419     55.925419    111.850838
     -4.549550     55.030496     55.030496    110.060993
     -4.539540     52.613530     52.613530    105.227060
     -4.529530     49.695217     49.695217     99.390435
     -4.519520     47.273597     47.273597     94.547195
     -4.509510     45.964032     45.964032     91.928063
     -4.499499     45.813793     45.813793     91.627585
     -4.489489     46.350891     46.350891     92.701782
     -4.479479     46.822673     46.822673     93.645347
     -4.469469     46.507105     46.507105     93.014209
     -4.459459     44.965794     44.965794     89.931587
     -4.449449     42.151538     42.151538     84.303076
     -4.439439     38.358710     38.358710     76.717420
     -4.429429     34.074231     34.074231     68.148463
     -4.419419     29.817483     29.817483     59.634966
     -4.409409     26.037597     26.037597     52.075194
     -4.399399     23.082961     23.082961     46.165922
     -4.389389     21.207304     21.207304     42.414607
     -4.379379     20.563241     20.563241     41.126482
     -4.369369     21.164121     21.164121     42.328241
     -4.359359     22.841506     22.841506     45.683012
     -4.349349     25.249261     25.249261     50.498522
     -4.339339     27.945077     27.945077     55.890154
     -4.329329     30.530559     30.530559     61.061117
     -4.319319     32.787877     32.787877     65.575755
     -4.309309     34.744130     34.744130     69.488260
     -4.299299     36.626249     36.626249     73.252498
     -4.289289     38.718802     38.718802     77.437605
     -4.279279     41.179199     41.179199     82.358397
     -4.269269     43.885654     43.885654     87.771308
     -4.259259     46.389102     46.389102     92.778204
     -4.249249     48.009824     48.009824     96.019647
     -4.239239     48.064698     48.064698     96.129397
     -4.229229     46.146561     46.146561     92.293122
     -4.219219     42.335414     42.335414     84.670828
     -4.209209     37.235097     37.235097     74.470194
     -4.199199     31.803499     31.803499     63.606997
     -4.189189     27.043647     27.043647     54.087294
     -4.179179     23.690406     23.690406     47.380811
     -4.169169     22.024603     22.024603     44.049206
     -4.159159     21.878800     21.878800     43.757601
     -4.149149     22.807873     22.807873     45.615746
     -4.139139     24.329726     24.329726     48.659453
     -4.129129     26.122302     26.122302     52.244603
     -4.119119     28.092279     28.092279     56.184558
     -4.109109     30.292725     30.292725     60.585450
     -4.099099     32.739279     32.739279     65.478557
     -4.089089     35.230150     35.230150     70.460300
     -4.079079     37.284732     37.284732     74.569464
     -4.069069     38.262320     38.262320     76.524640
     -4.059059     37.623698     37.623698     75.247396
     -4.049049     35.208289     35.208289     70.416578
     -4.039039     31.378200     31.378200     62.756400
     -4.029029     26.947681     26.947681     53.895362
     -4.019019     22.931634     22.931634     45.863267
     -4.009009     20.236597     20.236597     40.473195
     -3.998999     19.430217     19.430217     38.860434
     -3.988989     20.664113     20.664113     41.328225
     -3.978979     23.738902     23.738902     47.477803
     -3.968969     28.242563     28.242563     56.485127
     -3.958959     33.688481     33.688481     67.376962
     -3.948949     39.613645     39.613645     79.227290
     -3.938939     45.636126     45.636126     91.272253
     -3.928929     51.485654     51.485654    102.971308
     -3.918919     57.009222     57.009222    114.018445
     -3.908909     62.137389     62.137389    124.274777
     -3.898899     66.802013     66.802013    133.604026
     -3.888889     70.827343     70.827343    141.654685
     -3.878879     73.850557     73.850557    147.701115
     -3.868869     75.333549     75.333549    150.667097
     -3.858859     74.691675     74.691675    149.383351
     -3.848849     71.504760     71.504760    143.009521
     -3.838839     65.726202     65.726202    131.452403
     -3.828829     57.796952     57.796952    115.593904
     -3.818819     48.607436     48.607436     97.214873
     -3.808809     39.312505     39.312505     78.625010
     -3.798799     31.061316     31.061316     62.122632
     -3.788789     24.731142     24.731142     49.462283
     -3.778779     20.744784     20.744784     41.489568
     -3.768769     19.016232     19.016232     38.032464
     -3.758759     19.027072     19.027072     38.054144
     -3.748749     20.002322     20.002322     40.004643
     -3.738739     21.135324     21.135324     42.270647
     -3.728729     21.806128     21.806128     43.612256
     -3.718719     21.742589     21.742589     43.485177
     -3.708709     21.085370     21.085370     42.170740
     -3.698699     20.336463     20.336463     40.672925
     -3.688689     20.196081     20.196081     40.392161
     -3.678679     21.323868     21.323868     42.647736
     -3.668669     24.091033     24.091033     48.182066
     -3.658659     28.407171     28.407171     56.814341
     -3.648649     33.693510     33.693510     67.387019
     -3.638639     39.026321     39.026321     78.052642
     -3.628629     43.404548     43.404548     86.809096
     -3.618619     46.038882     46.038882     92.077764
     -3.608609     46.550911     46.550911     93.101822
     -3.598599     45.018881     45.018881     90.037763
     -3.588589     41.881487     41.881487     83.762973
     -3.578579     37.765855     37.765855     75.531709
     -3.568569     33.312864     33.312864     66.625729
     -3.558559     29.043438     29.043438     58.086876
     -3.548549     25.277808     25.277808     50.555616
     -3.538539     22.108696     22.108696     44.217391
     -3.528529     19.432000     19.432000     38.864000
     -3.518519     17.033330     17.033330     34.066659
     -3.508509     14.707213     14.707213     29.414427
     -3.498498     12.363818     12.363818     24.727637
     -3.488488     10.078156     10.078156     20.156311
     -3.478478      8.063942      8.063942     16.127883
     -3.468468      6.590236      6.590236     13.180473
     -3.458458      5.879796      5.879796     11.759592
     -3.448448      6.025774      6.025774     12.051549
     -3.438438      6.948908      6.948908     13.897815
     -3.428428      8.405302      8.405302     16.810604
     -3.418418     10.048245     10.048245     20.096491
     -3.408408     11.537345     11.537345     23.074690
     -3.398398     12.668875     12.668875     25.337749
     -3.388388     13.480841     13.480841     26.961682
     -3.378378     14.282651     14.282651     28.565302
     -3.368368     15.582644     15.582644     31.165288
     -3.358358     17.927745     17.927745     35.855490
     -3.348348     21.705224     21.705224     43.410448
     -3.338338     26.968924     26.968924     53.937847
     -3.328328     33.341657     33.341657     66.683313
     -3.318318     40.025286     40.025286     80.050572
     -3.308308     45.930083     45.930083     91.860167
     -3.298298     49.911385     49.911385     99.822769
     -3.288288     51.066117     51.066117    102.132234
     -3.278278     49.001746     49.001746     98.003492
     -3.268268     43.973949     43.973949     87.947899
     -3.258258     36.824623     36.824623     73.649247
     -3.248248     28.734498     28.734498     57.468996
     -3.238238     20.890661     20.890661     41.781322
     -3.228228     14.204344     14.204344     28.408688
     -3.218218      9.176632      9.176632     18.353265
     -3.208208      5.926787      5.926787     11.853574
     -3.198198      4.322991      4.322991      8.645983
     -3.188188      4.128148      4.128148      8.256295
     -3.178178      5.097069      5.097069     10.194139
     -3.168168      7.009897      7.009897     14.019793
     -3.158158      9.666673      9.666673     19.333347
     -3.148148     12.879052     12.879052     25.758105
     -3.138138     16.476789     16.476789     32.953578
     -3.128128     20.317306     20.317306     40.634612
     -3.118118     24.271920     24.271920     48.543840
     -3.108108     28.177784     28.177784     56.355568
     -3.098098     31.780881     31.780881     63.561761
     -3.088088     34.721360     34.721360     69.442720
     -3.078078     36.599099     36.599099     73.198198
     -3.068068     37.105626     37.105626     74.211251
     -3.058058     36.154333     36.154333     72.308666
     -3.048048     33.928890     33.928890     67.857780
     -3.038038     30.815167     30.815167     61.630334
     -3.028028     27.255260     27.255260     54.510520
     -3.018018     23.610313     23.610313     47.220626
     -3.008008     20.107516     20.107516     40.215032
     -2.997998     16.886764     16.886764     33.773528
     -2.987988     14.099045     14.099045     28.198090
     -2.977978     11.983790     11.983790     23.967581
     -2.967968     10.874609     10.874609     21.749219
     -2.957958     11.127712     11.127712     22.255424
     -2.947948     13.003616     13.003616     26.007232
     -2.937938     16.546604     16.546604     33.093209
     -2.927928     21.503520     21.503520     43.007041
     -2.917918     27.314082     27.314082     54.628163
     -2.907908     33.190579     33.190579     66.381157
     -2.897898     38.280930     38.280930     76.561860
     -2.887888     41.876171     41.876171     83.752342
     -2.877878     43.594609     43.594609     87.189219
     -2.867868     43.469686     43.469686     86.939371
     -2.857858     41.898887     41.898887     83.797774
     -2.847848     39.469015     39.469015     78.938030
     -2.837838     36.731463     36.731463     73.462927
     -2.827828     34.027151     34.027151     68.054301
     -2.817818     31.436288     31.436288     62.872576
     -2.807808     28.863376     28.863376     57.726751
     -2.797798     26.197665     26.197665     52.395331
     -2.787788     23.453443     23.453443     46.906885
     -2.777778     20.813043     20.813043     41.626086
     -2.767768     18.556738     18.556738     37.113477
     -2.757758     16.930937     16.930937     33.861873
     -2.747748     16.039813     16.039813     32.079626
     -2.737738     15.825840     15.825840     31.651681
     -2.727728     16.144175     16.144175     32.288350
     -2.717718     16.872766     16.872766     33.745532
     -2.707708     17.976398     17.976398     35.952796
     -2.697698     19.476742     19.476742     38.953484
     -2.687688     21.351150     21.351150     42.702300
     -2.677678     23.441164     23.441164     46.882329
     -2.667668     25.452825     25.452825     50.905650
     -2.657658     27.069097     27.069097     54.138194
     -2.647648     28.111744     28.111744     56.223488
     -2.637638     28.646807     28.646807     57.293613
     -2.627628     28.958998     28.958998     57.917997
     -2.617618     29.405124     29.405124     58.810248
     -2.607608     30.233465     30.233465     60.466930
     -2.597598     31.470206     31.470206     62.940413
     -2.587588     32.920222     32.920222     65.840445
     -2.577578     34.254227     34.254227     68.508454
     -2.567568     35.115099     35.115099     70.230198
     -2.557558     35.194635     35.194635     70.389270
     -2.547548     34.279790     34.279790     68.559580
     -2.537538     32.296233     32.296233     64.592466
     -2.527528     29.362826     29.362826     58.725652
     -2.517518     25.832426     25.832426     51.664851
     -2.507508     22.272747     22.272747     44.545495
     -2.497497     19.359636     19.359636     38.719272
     -2.487487     17.702270     17.702270     35.404541
     -2.477477     17.662483     17.662483     35.324966
     -2.467467     19.241893     19.241893     38.483785
     -2.457457     22.086517     22.086517     44.173035
     -2.447447     25.612315     25.612315     51.224631
     -2.437437     29.206086     29.206086     58.412172
     -2.427427     32.422669     32.422669     64.845338
     -2.417417     35.095871     35.095871     70.191741
     -2.407407     37.313034     37.313034     74.626069
     -2.397397     39.263010     39.263010     78.526020
     -2.387387     41.030277     41.030277     82.060555
     -2.377377     42.442810     42.442810     84.885620
     -2.367367     43.064507     43.064507     86.129014
     -2.357357     42.354809     42.354809     84.709618
     -2.347347     39.928756     39.928756     79.857512
     -2.337337     35.790226     35.790226     71.580453
     -2.327327     30.419128     30.419128     60.838257
     -2.317317     24.668807     24.668807     49.337614
     -2.307307     19.526683     19.526683     39.053365
     -2.297297     15.849568     15.849568     31.699136
     -2.287287     14.176110     14.176110     28.352219
     -2.277277     14.661007     14.661007     29.322015
     -2.267267     17.114019     17.114019     34.228038
     -2.257257     21.095312     21.095312     42.190623
     -2.247247     26.021410     26.021410     52.042820
     -2.237237     31.255648     31.255648     62.511296
     -2.227227     36.175828     36.175828     72.351656
     -2.217217     40.222984     40.222984     80.445968
     -2.207207     42.940403     42.940403     85.880806
     -2.197197     44.013314     44.013314     88.026629
     -2.187187     43.314705     43.314705     86.629410
     -2.177177     40.949125     40.949125     81.898250
     -2.167167     37.268710     37.268710     74.537420
     -2.157157     32.828418     32.828418     65.656836
     -2.147147     28.265339     28.265339     56.530678
     -2.137137     24.128469     24.128469     48.256937
     -2.127127     20.725857     20.725857     41.451713
     -2.117117     18.062701     18.062701     36.125402
     -2.107107     15.903481     15.903481     31.806963
     -2.097097     13.925622     13.925622     27.851245
     -2.087087     11.884514     11.884514     23.769029
     -2.077077      9.711308      9.711308     19.422616
     -2.067067      7.511529      7.511529     15.023057
     -2.057057      5.489890      5.489890     10.979781
     -2.047047      3.857945      3.857945      7.715890
     -2.037037      2.772818      2.772818      5.545635
     -2.027027      2.321476      2.321476      4.642951
     -2.017017      2.532448      2.532448      5.064897
     -2.007007      3.385341      3.385341      6.770682
     -1.996997      4.800901      4.800901      9.601803
     -1.986987      6.619357      6.619357     13.238714
     -1.976977      8.594505      8.594505     17.189009
     -1.966967     10.430847     10.430847     20.861695
     -1.956957     11.867532     11.867532     23.735064
     -1.946947     12.778224     12.778224     25.556447
     -1.936937     13.233749     13.233749     26.467497
     -1.926927     13.483631     13.483631     26.967263
     -1.916917     13.852989     13.852989     27.705977
     -1.906907     14.599040     14.599040     29.198080
     -1.896897     15.795721     15.795721     31.591442
     -1.886887     17.299804     17.299804     34.599607
     -1.876877     18.808783     18.808783     37.617566
     -1.866867     19.977824     19.977824     39.955648
     -1.856857     20.543608     20.543608     41.087217
     -1.846847     20.410029     20.410029     40.820058
     -1.836837     19.671109     19.671109     39.342217
     -1.826827     18.567074     18.567074     37.134147
     -1.816817     17.387720     17.387720     34.775439
     -1.806807     16.355717     16.355717     32.711435
     -1.796797     15.536836     15.536836     31.073671
     -1.786787     14.820617     14.820617     29.641235
     -1.776777     13.985457     13.985457     27.970915
     -1.766767     12.817772     12.817772     25.635545
     -1.756757     11.224055     11.224055     22.448110
     -1.746747      9.279893      9.279893     18.559786
     -1.736737      7.198849      7.198849     14.397697
     -1.726727      5.249501      5.249501     10.499002
     -1.716717      3.671108      3.671108      7.342217
     -1.706707      2.626753      2.626753      5.253505
     -1.696697      2.200831      2.200831      4.401661
     -1.686687      2.419092      2.419092      4.838185
     -1.676677      3.261040      3.261040      6.522080
     -1.666667      4.648202      4.648202      9.296403
     -1.656657      6.416727      6.416727     12.833454
     -1.646647      8.302806      8.302806     16.605612
     -1.636637      9.971110      9.971110     19.942220
     -1.626627     11.096128     11.096128     22.192255
