# EIG2DOS: Utility for SIESTA to obtain the electronic density of states
#  E. Artacho, Apr 1999, A. Garcia, Apr 2012
#  Nick R. Papior, Feb 2017
# ------------------------------------------
# Eigenvalues calculated from a non-polarized calculation
# Eigenvalues read from siesta.EIG
# Kpoint weights read from siesta.KP
# Using smearing parameter:   0.0500
# Using 1000 points in the energy range
# Selected bands: 1 to: 2981
# Emin, Emax in file for selected band(s):    -27.3469115    218.4152000
# Nbands, Nspin, Nk   =   2981     1     1
# E_F                 =    -4.1810 eV --> (shifted to ZERO)
# Broadening          =     0.0500 eV
#
#        E            N(up)  (=)   N(down)         Ntot
     -5.000000     32.370228     32.370228     64.740456
     -4.989990     37.772163     37.772163     75.544327
     -4.979980     42.756488     42.756488     85.512977
     -4.969970     46.412131     46.412131     92.824262
     -4.959960     48.026547     48.026547     96.053095
     -4.949950     47.327434     47.327434     94.654869
     -4.939940     44.576077     44.576077     89.152155
     -4.929930     40.493117     40.493117     80.986234
     -4.919920     36.072130     36.072130     72.144260
     -4.909910     32.361696     32.361696     64.723393
     -4.899900     30.269113     30.269113     60.538226
     -4.889890     30.396748     30.396748     60.793496
     -4.879880     32.908706     32.908706     65.817412
     -4.869870     37.449926     37.449926     74.899852
     -4.859860     43.169302     43.169302     86.338604
     -4.849850     48.889979     48.889979     97.779958
     -4.839840     53.411738     53.411738    106.823475
     -4.829830     55.854523     55.854523    111.709046
     -4.819820     55.910811     55.910811    111.821623
     -4.809810     53.900185     53.900185    107.800369
     -4.799800     50.602538     50.602538    101.205076
     -4.789790     46.943021     46.943021     93.886042
     -4.779780     43.662602     43.662602     87.325203
     -4.769770     41.105193     41.105193     82.210386
     -4.759760     39.191248     39.191248     78.382495
     -4.749750     37.561031     37.561031     75.122062
     -4.739740     35.799791     35.799791     71.599583
     -4.729730     33.632895     33.632895     67.265790
     -4.719720     31.009635     31.009635     62.019269
     -4.709710     28.061796     28.061796     56.123593
     -4.699700     24.990784     24.990784     49.981568
     -4.689690     21.968319     21.968319     43.936638
     -4.679680     19.114348     19.114348     38.228696
     -4.669670     16.557797     16.557797     33.115595
     -4.659660     14.529168     14.529168     29.058335
     -4.649650     13.412181     13.412181     26.824361
     -4.639640     13.702278     13.702278     27.404556
     -4.629630     15.865368     15.865368     31.730736
     -4.619620     20.137348     20.137348     40.274696
     -4.609610     26.338710     26.338710     52.677420
     -4.599600     33.790604     33.790604     67.581207
     -4.589590     41.399371     41.399371     82.798743
     -4.579580     47.919192     47.919192     95.838385
     -4.569570     52.320320     52.320320    104.640640
     -4.559560     54.123366     54.123366    108.246731
     -4.549550     53.553630     53.553630    107.107260
     -4.539540     51.439080     51.439080    102.878161
     -4.529530     48.889008     48.889008     97.778016
     -4.519520     46.887076     46.887076     93.774151
     -4.509510     45.963446     45.963446     91.926893
     -4.499499     46.066316     46.066316     92.132632
     -4.489489     46.661826     46.661826     93.323652
     -4.479479     46.997879     46.997879     93.995758
     -4.469469     46.410629     46.410629     92.821257
     -4.459459     44.551407     44.551407     89.102814
     -4.449449     41.461453     41.461453     82.922905
     -4.439439     37.496385     37.496385     74.992771
     -4.429429     33.166182     33.166182     66.332364
     -4.419419     28.979492     28.979492     57.958984
     -4.409409     25.354830     25.354830     50.709660
     -4.399399     22.604857     22.604857     45.209714
     -4.389389     20.951655     20.951655     41.903309
     -4.379379     20.522774     20.522774     41.045549
     -4.369369     21.312509     21.312509     42.625018
     -4.359359     23.140200     23.140200     46.280400
     -4.349349     25.657753     25.657753     51.315506
     -4.339339     28.434244     28.434244     56.868487
     -4.329329     31.094212     31.094212     62.188424
     -4.319319     33.445439     33.445439     66.890877
     -4.309309     35.529411     35.529411     71.058822
     -4.299299     37.562980     37.562980     75.125960
     -4.289289     39.790258     39.790258     79.580517
     -4.279279     42.304375     42.304375     84.608749
     -4.269269     44.915523     44.915523     89.831045
     -4.259259     47.131538     47.131538     94.263076
     -4.249249     48.280662     48.280662     96.561323
     -4.239239     47.748749     47.748749     95.497499
     -4.229229     45.243740     45.243740     90.487479
     -4.219219     40.970350     40.970350     81.940701
     -4.209209     35.624249     35.624249     71.248497
     -4.199199     30.193631     30.193631     60.387262
     -4.189189     25.647866     25.647866     51.295732
     -4.179179     22.645865     22.645865     45.291730
     -4.169169     21.382552     21.382552     42.765105
     -4.159159     21.622272     21.622272     43.244544
     -4.149149     22.883173     22.883173     45.766346
     -4.139139     24.676767     24.676767     49.353534
     -4.129129     26.692476     26.692476     53.384953
     -4.119119     28.848037     28.848037     57.696075
     -4.109109     31.190004     31.190004     62.380008
     -4.099099     33.702655     33.702655     67.405309
     -4.089089     36.137717     36.137717     72.275434
     -4.079079     37.978855     37.978855     75.957710
     -4.069069     38.590068     38.590068     77.180135
     -4.059059     37.492073     37.492073     74.984146
     -4.049049     34.626787     34.626787     69.253574
     -4.039039     30.465123     30.465123     60.930246
     -4.029029     25.895797     25.895797     51.791594
     -4.019019     21.950481     21.950481     43.900963
     -4.009009     19.498539     19.498539     38.997079
     -3.998999     19.040385     19.040385     38.080770
     -3.988989     20.657933     20.657933     41.315865
     -3.978979     24.097245     24.097245     48.194490
     -3.968969     28.911353     28.911353     57.822705
     -3.958959     34.595330     34.595330     69.190660
     -3.948949     40.681431     40.681431     81.362861
     -3.938939     46.795571     46.795571     93.591142
     -3.928929     52.685186     52.685186    105.370371
     -3.918919     58.215763     58.215763    116.431525
     -3.908909     63.322684     63.322684    126.645368
     -3.898899     67.917661     67.917661    135.835323
     -3.888889     71.782441     71.782441    143.564883
     -3.878879     74.509990     74.509990    149.019980
     -3.868869     75.546814     75.546814    151.093629
     -3.858859     74.345069     74.345069    148.690139
     -3.848849     70.574220     70.574220    141.148439
     -3.838839     64.304693     64.304693    128.609386
     -3.828829     56.081664     56.081664    112.163328
     -3.818819     46.851211     46.851211     93.702421
     -3.808809     37.759401     37.759401     75.518802
     -3.798799     29.890059     29.890059     59.780117
     -3.788789     24.022795     24.022795     48.045591
     -3.778779     20.479005     20.479005     40.958010
     -3.768769     19.091024     19.091024     38.182049
     -3.758759     19.293057     19.293057     38.586114
     -3.748749     20.302636     20.302636     40.605272
     -3.738739     21.343479     21.343479     42.686959
     -3.728729     21.854947     21.854947     43.709895
     -3.718719     21.638157     21.638157     43.276313
     -3.708709     20.901953     20.901953     41.803906
     -3.698699     20.192186     20.192186     40.384371
     -3.688689     20.214436     20.214436     40.428872
     -3.678679     21.591481     21.591481     43.182961
     -3.668669     24.625218     24.625218     49.250437
     -3.658659     29.145323     29.145323     58.290646
     -3.648649     34.509199     34.509199     69.018399
     -3.638639     39.766383     39.766383     79.532766
     -3.628629     43.932523     43.932523     87.865045
     -3.618619     46.268272     46.268272     92.536545
     -3.608609     46.458180     46.458180     92.916360
     -3.598599     44.636691     44.636691     89.273383
     -3.588589     41.280534     41.280534     82.561069
     -3.578579     37.034621     37.034621     74.069243
     -3.568569     32.540407     32.540407     65.080815
     -3.558559     28.306287     28.306287     56.612574
     -3.548549     24.631839     24.631839     49.263678
     -3.538539     21.589513     21.589513     43.179025
     -3.528529     19.068686     19.068686     38.137373
     -3.518519     16.877299     16.877299     33.754597
     -3.508509     14.870857     14.870857     29.741713
     -3.498498     13.055908     13.055908     26.111815
     -3.488488     11.617771     11.617771     23.235542
     -3.478478     10.854600     10.854600     21.709200
     -3.468468     11.043424     11.043424     22.086847
     -3.458458     12.294270     12.294270     24.588540
     -3.448448     14.453295     14.453295     28.906591
     -3.438438     17.097526     17.097526     34.195051
     -3.428428     19.631886     19.631886     39.263772
     -3.418418     21.462853     21.462853     42.925707
     -3.408408     22.192125     22.192125     44.384251
     -3.398398     21.760245     21.760245     43.520490
     -3.388388     20.484026     20.484026     40.968053
     -3.378378     18.971252     18.971252     37.942503
     -3.368368     17.944356     17.944356     35.888713
     -3.358358     18.037155     18.037155     36.074309
     -3.348348     19.628965     19.628965     39.257930
     -3.338338     22.752913     22.752913     45.505825
     -3.328328     27.081863     27.081863     54.163727
     -3.318318     31.979444     31.979444     63.958888
     -3.308308     36.609167     36.609167     73.218333
     -3.298298     40.102009     40.102009     80.204018
     -3.288288     41.766929     41.766929     83.533859
     -3.278278     41.288835     41.288835     82.577671
     -3.268268     38.827878     38.827878     77.655756
     -3.258258     34.954124     34.954124     69.908248
     -3.248248     30.428703     30.428703     60.857407
     -3.238238     25.930421     25.930421     51.860842
     -3.228228     21.860495     21.860495     43.720989
     -3.218218     18.309082     18.309082     36.618165
     -3.208208     15.169997     15.169997     30.339994
     -3.198198     12.313086     12.313086     24.626172
     -3.188188      9.714311      9.714311     19.428622
     -3.178178      7.494453      7.494453     14.988907
     -3.168168      5.881356      5.881356     11.762713
     -3.158158      5.142597      5.142597     10.285194
     -3.148148      5.524397      5.524397     11.048794
     -3.138138      7.201277      7.201277     14.402554
     -3.128128     10.221746     10.221746     20.443492
     -3.118118     14.444463     14.444463     28.888927
     -3.108108     19.487442     19.487442     38.974884
     -3.098098     24.733914     24.733914     49.467828
     -3.088088     29.429037     29.429037     58.858074
     -3.078078     32.858745     32.858745     65.717489
     -3.068068     34.548774     34.548774     69.097547
     -3.058058     34.394829     34.394829     68.789657
     -3.048048     32.658891     32.658891     65.317782
     -3.038038     29.833992     29.833992     59.667983
     -3.028028     26.450280     26.450280     52.900560
     -3.018018     22.922935     22.922935     45.845870
     -3.008008     19.509244     19.509244     39.018488
     -2.997998     16.371947     16.371947     32.743894
     -2.987988     13.686332     13.686332     27.372664
     -2.977978     11.714690     11.714690     23.429380
     -2.967968     10.802881     10.802881     21.605762
     -2.957958     11.300876     11.300876     22.601751
     -2.947948     13.442548     13.442548     26.885096
     -2.937938     17.229931     17.229931     34.459861
     -2.927928     22.362058     22.362058     44.724115
     -2.917918     28.238196     28.238196     56.476393
     -2.907908     34.050213     34.050213     68.100425
     -2.897898     38.954086     38.954086     77.908172
     -2.887888     42.277873     42.277873     84.555747
     -2.877878     43.696665     43.696665     87.393329
     -2.867868     43.303611     43.303611     86.607221
     -2.857858     41.540150     41.540150     83.080300
     -2.847848     39.008331     39.008331     78.016662
     -2.837838     36.244861     36.244861     72.489721
     -2.827828     33.557455     33.557455     67.114911
     -2.817818     30.993242     30.993242     61.986484
     -2.807808     28.440027     28.440027     56.880055
     -2.797798     25.792153     25.792153     51.584306
     -2.787788     23.082981     23.082981     46.165962
     -2.777778     20.512495     20.512495     41.024989
     -2.767768     18.364370     18.364370     36.728739
     -2.757758     16.872315     16.872315     33.744630
     -2.747748     16.121664     16.121664     32.243327
     -2.737738     16.043987     16.043987     32.087975
     -2.727728     16.498230     16.498230     32.996461
     -2.717718     17.373227     17.373227     34.746454
     -2.707708     18.633503     18.633503     37.267005
     -2.697698     20.274019     20.274019     40.548038
     -2.687688     22.221267     22.221267     44.442534
     -2.677678     24.265777     24.265777     48.531553
     -2.667668     26.096024     26.096024     52.192048
     -2.657658     27.431966     27.431966     54.863932
     -2.647648     28.178665     28.178665     56.357329
     -2.637638     28.495782     28.495782     56.991565
     -2.627628     28.728695     28.728695     57.457391
     -2.617618     29.236673     29.236673     58.473346
     -2.607608     30.217640     30.217640     60.435279
     -2.597598     31.622860     31.622860     63.245721
     -2.587588     33.188922     33.188922     66.377843
     -2.577578     34.542883     34.542883     69.085767
     -2.567568     35.311369     35.311369     70.622737
     -2.557558     35.193866     35.193866     70.387731
     -2.547548     34.007803     34.007803     68.015605
     -2.537538     31.732662     31.732662     63.465325
     -2.527528     28.559074     28.559074     57.118148
     -2.517518     24.912810     24.912810     49.825620
     -2.507508     21.411180     21.411180     42.822360
     -2.497497     18.735553     18.735553     37.471106
     -2.487487     17.450591     17.450591     34.901183
     -2.477477     17.835924     17.835924     35.671849
     -2.467467     19.798862     19.798862     39.597724
     -2.457457     22.907758     22.907758     45.815516
     -2.447447     26.539345     26.539345     53.078690
     -2.437437     30.087503     30.087503     60.175006
     -2.427427     33.152262     33.152262     66.304524
     -2.417417     35.629663     35.629663     71.259326
     -2.407407     37.660250     37.660250     75.320499
     -2.397397     39.456228     39.456228     78.912456
     -2.387387     41.089231     41.089231     82.178462
     -2.377377     42.350210     42.350210     84.700420
     -2.367367     42.767810     42.767810     85.535620
     -2.357357     41.795106     41.795106     83.590212
     -2.347347     39.082563     39.082563     78.165126
     -2.337337     34.701194     34.701194     69.402387
     -2.327327     29.201304     29.201304     58.402607
     -2.317317     23.479047     23.479047     46.958094
     -2.307307     18.520661     18.520661     37.041321
     -2.297297     15.142692     15.142692     30.285384
     -2.287287     13.824458     13.824458     27.648916
     -2.277277     14.664299     14.664299     29.328598
     -2.267267     17.431901     17.431901     34.863802
     -2.257257     21.665176     21.665176     43.330353
     -2.247247     26.769725     26.769725     53.539450
     -2.237237     32.101230     32.101230     64.202461
     -2.227227     37.028848     37.028848     74.057696
     -2.217217     40.985925     40.985925     81.971849
     -2.207207     43.516570     43.516570     87.033140
     -2.197197     44.325248     44.325248     88.650495
     -2.187187     43.330061     43.330061     86.660121
     -2.177177     40.707107     40.707107     81.414214
     -2.167167     36.898381     36.898381     73.796762
     -2.157157     32.552763     32.552763     65.105526
     -2.147147     28.390421     28.390421     56.780843
     -2.137137     25.020829     25.020829     50.041658
     -2.127127     22.779374     22.779374     45.558749
     -2.117117     21.649911     21.649911     43.299823
     -2.107107     21.304182     21.304182     42.608364
     -2.097097     21.235959     21.235959     42.471917
     -2.087087     20.931094     20.931094     41.862189
     -2.077077     20.012073     20.012073     40.024146
     -2.067067     18.319268     18.319268     36.638537
     -2.057057     15.920246     15.920246     31.840492
     -2.047047     13.058969     13.058969     26.117937
     -2.037037     10.067792     10.067792     20.135584
     -2.027027      7.270725      7.270725     14.541451
     -2.017017      4.906688      4.906688      9.813376
     -2.007007      3.093222      3.093222      6.186443
     -1.996997      1.835104      1.835104      3.670207
     -1.986987      1.065729      1.065729      2.131458
     -1.976977      0.700328      0.700328      1.400657
     -1.966967      0.681544      0.681544      1.363088
     -1.956957      1.005180      1.005180      2.010360
     -1.946947      1.721191      1.721191      3.442382
     -1.936937      2.909898      2.909898      5.819796
     -1.926927      4.638199      4.638199      9.276399
     -1.916917      6.907470      6.907470     13.814940
     -1.906907      9.611872      9.611872     19.223744
     -1.896897     12.527102     12.527102     25.054204
     -1.886887     15.340579     15.340579     30.681158
     -1.876877     17.717491     17.717491     35.434981
     -1.866867     19.382071     19.382071     38.764143
     -1.856857     20.188126     20.188126     40.376253
     -1.846847     20.157340     20.157340     40.314679
     -1.836837     19.472512     19.472512     38.945023
     -1.826827     18.422242     18.422242     36.844485
     -1.816817     17.306624     17.306624     34.613249
     -1.806807     16.331993     16.331993     32.663986
     -1.796797     15.537954     15.537954     31.075908
     -1.786787     14.795565     14.795565     29.591130
     -1.776777     13.884444     13.884444     27.768887
     -1.766767     12.613365     12.613365     25.226730
     -1.756757     10.922836     10.922836     21.845672
     -1.746747      8.919366      8.919366     17.838732
     -1.736737      6.832656      6.832656     13.665312
     -1.726727      4.929712      4.929712      9.859425
     -1.716717      3.436123      3.436123      6.872245
     -1.706707      2.498262      2.498262      4.996523
     -1.696697      2.187244      2.187244      4.374488
     -1.686687      2.519701      2.519701      5.039403
     -1.676677      3.466323      3.466323      6.932646
     -1.666667      4.935816      4.935816      9.871631
     -1.656657      6.747159      6.747159     13.494319
     -1.646647      8.620587      8.620587     17.241175
     -1.636637     10.215390     10.215390     20.430779
     -1.626627     11.219131     11.219131     22.438261
